5/7/2019, 10:03:55 AM ,,,
 Current Sensitivity ,1.00E-09,,,
 This file comes from It only measurement ,0.00E+00,,,
 Sampling rate ,500,,,
 Number of samples per channel ,-1,,,
 No filter from Labview , , , ,
 , ,,,
 ***End_of_Header*** ,,,,
 , Time , Current , Filtered Current , 
,-0.002993,1.57E-12,,
,-0.000993,3.56E-12,,
,0.001007,5.77E-12,,
,0.003007,7.06E-12,,
,0.005007,8.78E-12,,
,0.007007,1.05E-11,,
,0.009007,1.11E-11,,
,0.011007,1.05E-11,,
,0.013007,9.42E-12,,
,0.015007,8.56E-12,,
,0.017007,8.35E-12,,
,0.019007,8.89E-12,,
,0.021007,1.03E-11,,
,0.023007,1.17E-11,,
,0.025007,1.22E-11,,
,0.027007,1.18E-11,,
,0.029007,1.06E-11,,
,0.031007,9.74E-12,,
,0.033007,9.53E-12,,
,0.035007,1.01E-11,,
,0.037007,1.09E-11,,
,0.039007,1.20E-11,,
,0.041007,1.26E-11,,
,0.043007,1.25E-11,,
,0.045007,1.14E-11,,
,0.047007,1.02E-11,,
,0.049007,9.21E-12,,
,0.051007,8.89E-12,,
,0.053007,9.21E-12,,
,0.055007,1.02E-11,,
,0.057007,1.10E-11,,
,0.059007,1.10E-11,,
,0.061007,1.03E-11,,
,0.063007,8.89E-12,,
,0.065007,7.38E-12,,
,0.067007,6.42E-12,,
,0.069007,6.31E-12,,
,0.071007,6.95E-12,,
,0.073007,7.81E-12,,
,0.075007,7.92E-12,,
,0.077007,7.27E-12,,
,0.079007,5.34E-12,,
,0.081007,3.95E-12,,
,0.083007,2.87E-12,,
,0.085007,3.09E-12,,
,0.087007,3.62E-12,,
,0.089007,4.27E-12,,
,0.091007,4.38E-12,,
,0.093007,3.41E-12,,
,0.095007,1.80E-12,,
,0.097007,-1.33E-13,,
,0.099007,-1.42E-12,,
,0.101007,-1.74E-12,,
,0.103007,-1.53E-12,,
,0.105007,-5.62E-13,,
,0.107007,-2.53E-14,,
,0.109007,1.89E-13,,
,0.111007,-8.84E-13,,
,0.113007,-2.60E-12,,
,0.115007,-4.43E-12,,
,0.117007,-5.61E-12,,
,0.119007,-5.50E-12,,
,0.121007,-5.07E-12,,
,0.123007,-4.53E-12,,
,0.125007,-4.64E-12,,
,0.127007,-5.29E-12,,
,0.129007,-6.90E-12,,
,0.131007,-8.51E-12,,
,0.133007,-9.58E-12,,
,0.135007,-9.79E-12,,
,0.137007,-9.58E-12,,
,0.139007,-9.26E-12,,
,0.141007,-8.94E-12,,
,0.143007,-9.69E-12,,
,0.145007,-1.10E-11,,
,0.147007,-1.30E-11,,
,0.149007,-1.42E-11,,
,0.151007,-1.51E-11,,
,0.153007,-1.47E-11,,
,0.155007,-1.43E-11,,
,0.157007,-1.40E-11,,
,0.159007,-1.43E-11,,
,0.161007,-1.55E-11,,
,0.163007,-1.71E-11,,
,0.165007,-1.86E-11,,
,0.167007,-1.91E-11,,
,0.169007,-1.88E-11,,
,0.171007,-1.80E-11,,
,0.173007,-1.72E-11,,
,0.175007,-1.69E-11,,
,0.177007,-1.77E-11,,
,0.179007,-1.90E-11,,
,0.181007,-2.05E-11,,
,0.183007,-2.12E-11,,
,0.185007,-2.14E-11,,
,0.187007,-2.06E-11,,
,0.189007,-1.99E-11,,
,0.191007,-1.92E-11,,
,0.193007,-1.97E-11,,
,0.195007,-2.06E-11,,
,0.197007,-2.22E-11,,
,0.199007,-2.32E-11,,
,0.201007,-2.35E-11,,
,0.203007,-2.26E-11,,
,0.205007,-2.15E-11,,
,0.207007,-2.07E-11,,
,0.209007,-2.06E-11,,
,0.211007,-2.15E-11,,
,0.213007,-2.27E-11,,
,0.215007,-2.41E-11,,
,0.217007,-2.45E-11,,
,0.219007,-2.42E-11,,
,0.221007,-2.30E-11,,
,0.223007,-2.17E-11,,
,0.225007,-2.10E-11,,
,0.227007,-2.14E-11,,
,0.229007,-2.26E-11,,
,0.231007,-2.38E-11,,
,0.233007,-2.44E-11,,
,0.235007,-2.45E-11,,
,0.237007,-2.38E-11,,
,0.239007,-2.26E-11,,
,0.241007,-2.15E-11,,
,0.243007,-2.13E-11,,
,0.245007,-2.22E-11,,
,0.247007,-2.32E-11,,
,0.249007,-2.43E-11,,
,0.251007,-2.42E-11,,
,0.253007,-2.34E-11,,
,0.255007,-2.19E-11,,
,0.257007,-2.06E-11,,
,0.259007,-2.03E-11,,
,0.261007,-2.10E-11,,
,0.263007,-2.20E-11,,
,0.265007,-2.29E-11,,
,0.267007,-2.31E-11,,
,0.269007,-2.26E-11,,
,0.271007,-2.14E-11,,
,0.273007,-2.00E-11,,
,0.275007,-1.92E-11,,
,0.277007,-1.96E-11,,
,0.279007,-2.05E-11,,
,0.281007,-2.16E-11,,
,0.283007,-2.19E-11,,
,0.285007,-2.14E-11,,
,0.287007,-2.01E-11,,
,0.289007,-1.86E-11,,
,0.291007,-1.75E-11,,
,0.293007,-1.74E-11,,
,0.295007,-1.81E-11,,
,0.297007,-1.90E-11,,
,0.299007,-1.95E-11,,
,0.301007,-1.91E-11,,
,0.303007,-1.80E-11,,
,0.305007,-1.61E-11,,
,0.307007,-1.47E-11,,
,0.309007,-1.42E-11,,
,0.311007,-1.49E-11,,
,0.313007,-1.58E-11,,
,0.315007,-1.66E-11,,
,0.317007,-1.65E-11,,
,0.319007,-1.55E-11,,
,0.321007,-1.39E-11,,
,0.323007,-1.20E-11,,
,0.325007,-1.10E-11,,
,0.327007,-1.07E-11,,
,0.329007,-1.13E-11,,
,0.331007,-1.19E-11,,
,0.333007,-1.22E-11,,
,0.335007,-1.13E-11,,
,0.337007,-9.79E-12,,
,0.339007,-7.86E-12,,
,0.341007,-6.36E-12,,
,0.343007,-5.82E-12,,
,0.345007,-6.14E-12,,
,0.347007,-6.57E-12,,
,0.349007,-6.68E-12,,
,0.351007,-6.04E-12,,
,0.353007,-4.96E-12,,
,0.355007,-3.25E-12,,
,0.357007,-1.53E-12,,
,0.359007,-3.47E-13,,
,0.361007,-3.47E-13,,
,0.363007,-9.92E-13,,
,0.365007,-1.53E-12,,
,0.367007,-1.10E-12,,
,0.369007,8.20E-14,,
,0.371007,2.12E-12,,
,0.373007,4.16E-12,,
,0.375007,5.77E-12,,
,0.377007,6.09E-12,,
,0.379007,5.77E-12,,
,0.381007,5.13E-12,,
,0.383007,5.02E-12,,
,0.385007,5.77E-12,,
,0.387007,7.38E-12,,
,0.389007,9.42E-12,,
,0.391007,1.09E-11,,
,0.393007,1.17E-11,,
,0.395007,1.16E-11,,
,0.397007,1.14E-11,,
,0.399007,1.12E-11,,
,0.401007,1.19E-11,,
,0.403007,1.32E-11,,
,0.405007,1.51E-11,,
,0.407007,1.67E-11,,
,0.409007,1.77E-11,,
,0.411007,1.75E-11,,
,0.413007,1.70E-11,,
,0.415007,1.67E-11,,
,0.417007,1.73E-11,,
,0.419007,1.82E-11,,
,0.421007,1.98E-11,,
,0.423007,2.16E-11,,
,0.425007,2.27E-11,,
,0.427007,2.29E-11,,
,0.429007,2.23E-11,,
,0.431007,2.18E-11,,
,0.433007,2.17E-11,,
,0.435007,2.26E-11,,
,0.437007,2.43E-11,,
,0.439007,2.64E-11,,
,0.441007,2.77E-11,,
,0.443007,2.79E-11,,
,0.445007,2.75E-11,,
,0.447007,2.67E-11,,
,0.449007,2.64E-11,,
,0.451007,2.67E-11,,
,0.453007,2.77E-11,,
,0.455007,2.92E-11,,
,0.457007,3.04E-11,,
,0.459007,3.09E-11,,
,0.461007,3.06E-11,,
,0.463007,2.96E-11,,
,0.465007,2.89E-11,,
,0.467007,2.87E-11,,
,0.469007,2.97E-11,,
,0.471007,3.13E-11,,
,0.473007,3.29E-11,,
,0.475007,3.37E-11,,
,0.477007,3.35E-11,,
,0.479007,3.26E-11,,
,0.481007,3.15E-11,,
,0.483007,3.13E-11,,
,0.485007,3.14E-11,,
,0.487007,3.28E-11,,
,0.489007,3.41E-11,,
,0.491007,3.53E-11,,
,0.493007,3.51E-11,,
,0.495007,3.40E-11,,
,0.497007,3.26E-11,,
,0.499007,3.18E-11,,
,0.501007,3.19E-11,,
,0.503007,3.26E-11,,
,0.505007,3.40E-11,,
,0.507007,3.51E-11,,
,0.509007,3.55E-11,,
,0.511007,3.49E-11,,
,0.513007,3.37E-11,,
,0.515007,3.26E-11,,
,0.517007,3.19E-11,,
,0.519007,3.20E-11,,
,0.521007,3.27E-11,,
,0.523007,3.37E-11,,
,0.525007,3.40E-11,,
,0.527007,3.35E-11,,
,0.529007,3.25E-11,,
,0.531007,3.11E-11,,
,0.533007,3.01E-11,,
,0.535007,3.00E-11,,
,0.537007,3.13E-11,,
,0.539007,3.26E-11,,
,0.541007,3.31E-11,,
,0.543007,3.26E-11,,
,0.545007,3.15E-11,,
,0.547007,3.01E-11,,
,0.549007,2.89E-11,,
,0.551007,2.84E-11,,
,0.553007,2.87E-11,,
,0.555007,2.96E-11,,
,0.557007,3.01E-11,,
,0.559007,3.01E-11,,
,0.561007,2.91E-11,,
,0.563007,2.75E-11,,
,0.565007,2.61E-11,,
,0.567007,2.53E-11,,
,0.569007,2.55E-11,,
,0.571007,2.61E-11,,
,0.573007,2.69E-11,,
,0.575007,2.70E-11,,
,0.577007,2.63E-11,,
,0.579007,2.45E-11,,
,0.581007,2.26E-11,,
,0.583007,2.16E-11,,
,0.585007,2.14E-11,,
,0.587007,2.21E-11,,
,0.589007,2.31E-11,,
,0.591007,2.36E-11,,
,0.593007,2.31E-11,,
,0.595007,2.12E-11,,
,0.597007,1.91E-11,,
,0.599007,1.77E-11,,
,0.601007,1.73E-11,,
,0.603007,1.80E-11,,
,0.605007,1.92E-11,,
,0.607007,2.01E-11,,
,0.609007,1.99E-11,,
,0.611007,1.85E-11,,
,0.613007,1.68E-11,,
,0.615007,1.51E-11,,
,0.617007,1.41E-11,,
,0.619007,1.39E-11,,
,0.621007,1.47E-11,,
,0.623007,1.53E-11,,
,0.625007,1.56E-11,,
,0.627007,1.48E-11,,
,0.629007,1.34E-11,,
,0.631007,1.20E-11,,
,0.633007,1.15E-11,,
,0.635007,1.16E-11,,
,0.637007,1.21E-11,,
,0.639007,1.29E-11,,
,0.641007,1.34E-11,,
,0.643007,1.32E-11,,
,0.645007,1.19E-11,,
,0.647007,1.04E-11,,
,0.649007,9.42E-12,,
,0.651007,9.31E-12,,
,0.653007,1.01E-11,,
,0.655007,1.09E-11,,
,0.657007,1.17E-11,,
,0.659007,1.16E-11,,
,0.661007,1.06E-11,,
,0.663007,9.10E-12,,
,0.665007,7.81E-12,,
,0.667007,7.38E-12,,
,0.669007,7.70E-12,,
,0.671007,8.78E-12,,
,0.673007,9.74E-12,,
,0.675007,1.02E-11,,
,0.677007,9.42E-12,,
,0.679007,8.13E-12,,
,0.681007,6.52E-12,,
,0.683007,5.77E-12,,
,0.685007,5.56E-12,,
,0.687007,6.20E-12,,
,0.689007,7.17E-12,,
,0.691007,7.92E-12,,
,0.693007,7.60E-12,,
,0.695007,6.20E-12,,
,0.697007,4.48E-12,,
,0.699007,3.52E-12,,
,0.701007,3.41E-12,,
,0.703007,4.38E-12,,
,0.705007,5.34E-12,,
,0.707007,6.20E-12,,
,0.709007,5.99E-12,,
,0.711007,5.13E-12,,
,0.713007,3.20E-12,,
,0.715007,1.80E-12,,
,0.717007,1.05E-12,,
,0.719007,1.48E-12,,
,0.721007,2.44E-12,,
,0.723007,3.62E-12,,
,0.725007,4.05E-12,,
,0.727007,3.20E-12,,
,0.729007,1.37E-12,,
,0.731007,-3.47E-13,,
,0.733007,-1.21E-12,,
,0.735007,-1.10E-12,,
,0.737007,-4.55E-13,,
,0.739007,2.97E-13,,
,0.741007,6.19E-13,,
,0.743007,1.89E-13,,
,0.745007,-1.21E-12,,
,0.747007,-2.92E-12,,
,0.749007,-4.10E-12,,
,0.751007,-4.43E-12,,
,0.753007,-4.00E-12,,
,0.755007,-3.14E-12,,
,0.757007,-2.60E-12,,
,0.759007,-2.71E-12,,
,0.761007,-3.78E-12,,
,0.763007,-5.18E-12,,
,0.765007,-6.57E-12,,
,0.767007,-7.33E-12,,
,0.769007,-7.33E-12,,
,0.771007,-6.47E-12,,
,0.773007,-5.61E-12,,
,0.775007,-5.18E-12,,
,0.777007,-5.61E-12,,
,0.779007,-6.79E-12,,
,0.781007,-8.29E-12,,
,0.783007,-9.37E-12,,
,0.785007,-9.58E-12,,
,0.787007,-8.83E-12,,
,0.789007,-7.86E-12,,
,0.791007,-7.33E-12,,
,0.793007,-8.29E-12,,
,0.795007,-1.02E-11,,
,0.797007,-1.22E-11,,
,0.799007,-1.33E-11,,
,0.801007,-1.34E-11,,
,0.803007,-1.30E-11,,
,0.805007,-1.22E-11,,
,0.807007,-1.14E-11,,
,0.809007,-1.16E-11,,
,0.811007,-1.26E-11,,
,0.813007,-1.45E-11,,
,0.815007,-1.60E-11,,
,0.817007,-1.69E-11,,
,0.819007,-1.69E-11,,
,0.821007,-1.63E-11,,
,0.823007,-1.57E-11,,
,0.825007,-1.54E-11,,
,0.827007,-1.62E-11,,
,0.829007,-1.81E-11,,
,0.831007,-2.00E-11,,
,0.833007,-2.12E-11,,
,0.835007,-2.12E-11,,
,0.837007,-2.06E-11,,
,0.839007,-1.97E-11,,
,0.841007,-1.92E-11,,
,0.843007,-1.97E-11,,
,0.845007,-2.11E-11,,
,0.847007,-2.27E-11,,
,0.849007,-2.41E-11,,
,0.851007,-2.45E-11,,
,0.853007,-2.45E-11,,
,0.855007,-2.39E-11,,
,0.857007,-2.39E-11,,
,0.859007,-2.46E-11,,
,0.861007,-2.61E-11,,
,0.863007,-2.80E-11,,
,0.865007,-2.94E-11,,
,0.867007,-3.03E-11,,
,0.869007,-3.01E-11,,
,0.871007,-2.93E-11,,
,0.873007,-2.84E-11,,
,0.875007,-2.84E-11,,
,0.877007,-2.94E-11,,
,0.879007,-3.16E-11,,
,0.881007,-3.34E-11,,
,0.883007,-3.46E-11,,
,0.885007,-3.46E-11,,
,0.887007,-3.41E-11,,
,0.889007,-3.32E-11,,
,0.891007,-3.30E-11,,
,0.893007,-3.37E-11,,
,0.895007,-3.55E-11,,
,0.897007,-3.74E-11,,
,0.899007,-3.89E-11,,
,0.901007,-3.94E-11,,
,0.903007,-3.89E-11,,
,0.905007,-3.77E-11,,
,0.907007,-3.66E-11,,
,0.909007,-3.65E-11,,
,0.911007,-3.76E-11,,
,0.913007,-3.94E-11,,
,0.915007,-4.10E-11,,
,0.917007,-4.17E-11,,
,0.919007,-4.15E-11,,
,0.921007,-4.05E-11,,
,0.923007,-3.97E-11,,
,0.925007,-3.96E-11,,
,0.927007,-4.06E-11,,
,0.929007,-4.21E-11,,
,0.931007,-4.36E-11,,
,0.933007,-4.45E-11,,
,0.935007,-4.44E-11,,
,0.937007,-4.33E-11,,
,0.939007,-4.20E-11,,
,0.941007,-4.10E-11,,
,0.943007,-4.13E-11,,
,0.945007,-4.23E-11,,
,0.947007,-4.38E-11,,
,0.949007,-4.49E-11,,
,0.951007,-4.52E-11,,
,0.953007,-4.46E-11,,
,0.955007,-4.33E-11,,
,0.957007,-4.25E-11,,
,0.959007,-4.24E-11,,
,0.961007,-4.35E-11,,
,0.963007,-4.47E-11,,
,0.965007,-4.58E-11,,
,0.967007,-4.62E-11,,
,0.969007,-4.59E-11,,
,0.971007,-4.48E-11,,
,0.973007,-4.35E-11,,
,0.975007,-4.30E-11,,
,0.977007,-4.36E-11,,
,0.979007,-4.50E-11,,
,0.981007,-4.65E-11,,
,0.983007,-4.74E-11,,
,0.985007,-4.74E-11,,
,0.987007,-4.66E-11,,
,0.989007,-4.59E-11,,
,0.991007,-4.57E-11,,
,0.993007,-4.60E-11,,
,0.995007,-4.73E-11,,
,0.997007,-4.89E-11,,
,0.999007,-5.03E-11,,
,1.001007,-5.07E-11,,
,1.003007,-5.01E-11,,
,1.005007,-4.90E-11,,
,1.007007,-4.83E-11,,
,1.009007,-4.87E-11,,
,1.011007,-5.02E-11,,
,1.013007,-5.20E-11,,
,1.015007,-5.37E-11,,
,1.017007,-5.45E-11,,
,1.019007,-5.41E-11,,
,1.021007,-5.35E-11,,
,1.023007,-5.26E-11,,
,1.025007,-5.27E-11,,
,1.027007,-5.38E-11,,
,1.029007,-5.57E-11,,
,1.031007,-5.76E-11,,
,1.033007,-5.86E-11,,
,1.035007,-5.87E-11,,
,1.037007,-5.84E-11,,
,1.039007,-5.77E-11,,
,1.041007,-5.78E-11,,
,1.043007,-5.84E-11,,
,1.045007,-6.05E-11,,
,1.047007,-6.24E-11,,
,1.049007,-6.42E-11,,
,1.051007,-6.50E-11,,
,1.053007,-6.52E-11,,
,1.055007,-6.49E-11,,
,1.057007,-6.48E-11,,
,1.059007,-6.56E-11,,
,1.061007,-6.74E-11,,
,1.063007,-6.98E-11,,
,1.065007,-7.16E-11,,
,1.067007,-7.28E-11,,
,1.069007,-7.30E-11,,
,1.071007,-7.26E-11,,
,1.073007,-7.22E-11,,
,1.075007,-7.24E-11,,
,1.077007,-7.38E-11,,
,1.079007,-7.60E-11,,
,1.081007,-7.82E-11,,
,1.083007,-7.99E-11,,
,1.085007,-8.05E-11,,
,1.087007,-8.05E-11,,
,1.089007,-8.01E-11,,
,1.091007,-8.01E-11,,
,1.093007,-8.11E-11,,
,1.095007,-8.30E-11,,
,1.097007,-8.53E-11,,
,1.099007,-8.70E-11,,
,1.101007,-8.79E-11,,
,1.103007,-8.78E-11,,
,1.105007,-8.74E-11,,
,1.107007,-8.73E-11,,
,1.109007,-8.79E-11,,
,1.111007,-8.96E-11,,
,1.113007,-9.16E-11,,
,1.115007,-9.37E-11,,
,1.117007,-9.47E-11,,
,1.119007,-9.46E-11,,
,1.121007,-9.40E-11,,
,1.123007,-9.36E-11,,
,1.125007,-9.37E-11,,
,1.127007,-9.49E-11,,
,1.129007,-9.69E-11,,
,1.131007,-9.89E-11,,
,1.133007,-1.00E-10,,
,1.135007,-1.00E-10,,
,1.137007,-9.93E-11,,
,1.139007,-9.83E-11,,
,1.141007,-9.77E-11,,
,1.143007,-9.81E-11,,
,1.145007,-9.98E-11,,
,1.147007,-1.02E-10,,
,1.149007,-1.03E-10,,
,1.151007,-1.03E-10,,
,1.153007,-1.03E-10,,
,1.155007,-1.02E-10,,
,1.157007,-1.01E-10,,
,1.159007,-1.02E-10,,
,1.161007,-1.03E-10,,
,1.163007,-1.04E-10,,
,1.165007,-1.06E-10,,
,1.167007,-1.06E-10,,
,1.169007,-1.06E-10,,
,1.171007,-1.05E-10,,
,1.173007,-1.04E-10,,
,1.175007,-1.04E-10,,
,1.177007,-1.04E-10,,
,1.179007,-1.05E-10,,
,1.181007,-1.06E-10,,
,1.183007,-1.06E-10,,
,1.185007,-1.06E-10,,
,1.187007,-1.05E-10,,
,1.189007,-1.03E-10,,
,1.191007,-1.02E-10,,
,1.193007,-1.02E-10,,
,1.195007,-1.03E-10,,
,1.197007,-1.04E-10,,
,1.199007,-1.05E-10,,
,1.201007,-1.04E-10,,
,1.203007,-1.03E-10,,
,1.205007,-1.01E-10,,
,1.207007,-9.92E-11,,
,1.209007,-9.85E-11,,
,1.211007,-9.88E-11,,
,1.213007,-9.98E-11,,
,1.215007,-1.01E-10,,
,1.217007,-1.00E-10,,
,1.219007,-9.89E-11,,
,1.221007,-9.72E-11,,
,1.223007,-9.55E-11,,
,1.225007,-9.43E-11,,
,1.227007,-9.42E-11,,
,1.229007,-9.48E-11,,
,1.231007,-9.56E-11,,
,1.233007,-9.56E-11,,
,1.235007,-9.46E-11,,
,1.237007,-9.29E-11,,
,1.239007,-9.06E-11,,
,1.241007,-8.90E-11,,
,1.243007,-8.85E-11,,
,1.245007,-8.89E-11,,
,1.247007,-8.95E-11,,
,1.249007,-8.93E-11,,
,1.251007,-8.84E-11,,
,1.253007,-8.68E-11,,
,1.255007,-8.49E-11,,
,1.257007,-8.34E-11,,
,1.259007,-8.28E-11,,
,1.261007,-8.29E-11,,
,1.263007,-8.37E-11,,
,1.265007,-8.41E-11,,
,1.267007,-8.39E-11,,
,1.269007,-8.25E-11,,
,1.271007,-8.04E-11,,
,1.273007,-7.85E-11,,
,1.275007,-7.75E-11,,
,1.277007,-7.76E-11,,
,1.279007,-7.87E-11,,
,1.281007,-7.98E-11,,
,1.283007,-8.02E-11,,
,1.285007,-7.96E-11,,
,1.287007,-7.81E-11,,
,1.289007,-7.67E-11,,
,1.291007,-7.56E-11,,
,1.293007,-7.58E-11,,
,1.295007,-7.69E-11,,
,1.297007,-7.85E-11,,
,1.299007,-7.97E-11,,
,1.301007,-7.99E-11,,
,1.303007,-7.94E-11,,
,1.305007,-7.83E-11,,
,1.307007,-7.76E-11,,
,1.309007,-7.78E-11,,
,1.311007,-7.89E-11,,
,1.313007,-8.05E-11,,
,1.315007,-8.16E-11,,
,1.317007,-8.23E-11,,
,1.319007,-8.17E-11,,
,1.321007,-8.12E-11,,
,1.323007,-8.02E-11,,
,1.325007,-8.04E-11,,
,1.327007,-8.13E-11,,
,1.329007,-8.27E-11,,
,1.331007,-8.39E-11,,
,1.333007,-8.41E-11,,
,1.335007,-8.35E-11,,
,1.337007,-8.23E-11,,
,1.339007,-8.09E-11,,
,1.341007,-7.99E-11,,
,1.343007,-7.98E-11,,
,1.345007,-8.09E-11,,
,1.347007,-8.24E-11,,
,1.349007,-8.29E-11,,
,1.351007,-8.24E-11,,
,1.353007,-8.12E-11,,
,1.355007,-7.99E-11,,
,1.357007,-7.88E-11,,
,1.359007,-7.83E-11,,
,1.361007,-7.88E-11,,
,1.363007,-7.99E-11,,
,1.365007,-8.05E-11,,
,1.367007,-8.06E-11,,
,1.369007,-7.97E-11,,
,1.371007,-7.84E-11,,
,1.373007,-7.66E-11,,
,1.375007,-7.55E-11,,
,1.377007,-7.54E-11,,
,1.379007,-7.64E-11,,
,1.381007,-7.73E-11,,
,1.383007,-7.76E-11,,
,1.385007,-7.71E-11,,
,1.387007,-7.59E-11,,
,1.389007,-7.45E-11,,
,1.391007,-7.35E-11,,
,1.393007,-7.36E-11,,
,1.395007,-7.44E-11,,
,1.397007,-7.59E-11,,
,1.399007,-7.66E-11,,
,1.401007,-7.64E-11,,
,1.403007,-7.49E-11,,
,1.405007,-7.31E-11,,
,1.407007,-7.16E-11,,
,1.409007,-7.11E-11,,
,1.411007,-7.16E-11,,
,1.413007,-7.28E-11,,
,1.415007,-7.36E-11,,
,1.417007,-7.36E-11,,
,1.419007,-7.26E-11,,
,1.421007,-7.12E-11,,
,1.423007,-6.96E-11,,
,1.425007,-6.87E-11,,
,1.427007,-6.89E-11,,
,1.429007,-6.99E-11,,
,1.431007,-7.10E-11,,
,1.433007,-7.14E-11,,
,1.435007,-7.09E-11,,
,1.437007,-6.96E-11,,
,1.439007,-6.81E-11,,
,1.441007,-6.71E-11,,
,1.443007,-6.69E-11,,
,1.445007,-6.78E-11,,
,1.447007,-6.87E-11,,
,1.449007,-6.92E-11,,
,1.451007,-6.85E-11,,
,1.453007,-6.74E-11,,
,1.455007,-6.60E-11,,
,1.457007,-6.48E-11,,
,1.459007,-6.42E-11,,
,1.461007,-6.50E-11,,
,1.463007,-6.63E-11,,
,1.465007,-6.73E-11,,
,1.467007,-6.73E-11,,
,1.469007,-6.67E-11,,
,1.471007,-6.53E-11,,
,1.473007,-6.38E-11,,
,1.475007,-6.28E-11,,
,1.477007,-6.28E-11,,
,1.479007,-6.37E-11,,
,1.481007,-6.45E-11,,
,1.483007,-6.49E-11,,
,1.485007,-6.44E-11,,
,1.487007,-6.36E-11,,
,1.489007,-6.27E-11,,
,1.491007,-6.21E-11,,
,1.493007,-6.24E-11,,
,1.495007,-6.34E-11,,
,1.497007,-6.48E-11,,
,1.499007,-6.53E-11,,
,1.501007,-6.51E-11,,
,1.503007,-6.42E-11,,
,1.505007,-6.30E-11,,
,1.507007,-6.20E-11,,
,1.509007,-6.15E-11,,
,1.511007,-6.25E-11,,
,1.513007,-6.39E-11,,
,1.515007,-6.51E-11,,
,1.517007,-6.51E-11,,
,1.519007,-6.45E-11,,
,1.521007,-6.34E-11,,
,1.523007,-6.23E-11,,
,1.525007,-6.16E-11,,
,1.527007,-6.22E-11,,
,1.529007,-6.34E-11,,
,1.531007,-6.45E-11,,
,1.533007,-6.50E-11,,
,1.535007,-6.44E-11,,
,1.537007,-6.32E-11,,
,1.539007,-6.13E-11,,
,1.541007,-5.99E-11,,
,1.543007,-5.97E-11,,
,1.545007,-6.07E-11,,
,1.547007,-6.20E-11,,
,1.549007,-6.22E-11,,
,1.551007,-6.19E-11,,
,1.553007,-6.05E-11,,
,1.555007,-5.91E-11,,
,1.557007,-5.76E-11,,
,1.559007,-5.69E-11,,
,1.561007,-5.71E-11,,
,1.563007,-5.77E-11,,
,1.565007,-5.81E-11,,
,1.567007,-5.79E-11,,
,1.569007,-5.67E-11,,
,1.571007,-5.51E-11,,
,1.573007,-5.34E-11,,
,1.575007,-5.25E-11,,
,1.577007,-5.23E-11,,
,1.579007,-5.27E-11,,
,1.581007,-5.28E-11,,
,1.583007,-5.25E-11,,
,1.585007,-5.14E-11,,
,1.587007,-4.98E-11,,
,1.589007,-4.78E-11,,
,1.591007,-4.63E-11,,
,1.593007,-4.59E-11,,
,1.595007,-4.67E-11,,
,1.597007,-4.75E-11,,
,1.599007,-4.78E-11,,
,1.601007,-4.68E-11,,
,1.603007,-4.51E-11,,
,1.605007,-4.28E-11,,
,1.607007,-4.07E-11,,
,1.609007,-3.96E-11,,
,1.611007,-3.97E-11,,
,1.613007,-4.02E-11,,
,1.615007,-4.06E-11,,
,1.617007,-4.00E-11,,
,1.619007,-3.89E-11,,
,1.621007,-3.71E-11,,
,1.623007,-3.50E-11,,
,1.625007,-3.35E-11,,
,1.627007,-3.29E-11,,
,1.629007,-3.33E-11,,
,1.631007,-3.34E-11,,
,1.633007,-3.31E-11,,
,1.635007,-3.19E-11,,
,1.637007,-3.03E-11,,
,1.639007,-2.84E-11,,
,1.641007,-2.68E-11,,
,1.643007,-2.61E-11,,
,1.645007,-2.63E-11,,
,1.647007,-2.70E-11,,
,1.649007,-2.70E-11,,
,1.651007,-2.63E-11,,
,1.653007,-2.49E-11,,
,1.655007,-2.33E-11,,
,1.657007,-2.18E-11,,
,1.659007,-2.12E-11,,
,1.661007,-2.17E-11,,
,1.663007,-2.26E-11,,
,1.665007,-2.33E-11,,
,1.667007,-2.30E-11,,
,1.669007,-2.22E-11,,
,1.671007,-2.06E-11,,
,1.673007,-1.91E-11,,
,1.675007,-1.80E-11,,
,1.677007,-1.82E-11,,
,1.679007,-1.92E-11,,
,1.681007,-2.05E-11,,
,1.683007,-2.10E-11,,
,1.685007,-2.06E-11,,
,1.687007,-1.95E-11,,
,1.689007,-1.80E-11,,
,1.691007,-1.69E-11,,
,1.693007,-1.66E-11,,
,1.695007,-1.73E-11,,
,1.697007,-1.83E-11,,
,1.699007,-1.91E-11,,
,1.701007,-1.90E-11,,
,1.703007,-1.82E-11,,
,1.705007,-1.67E-11,,
,1.707007,-1.54E-11,,
,1.709007,-1.48E-11,,
,1.711007,-1.54E-11,,
,1.713007,-1.63E-11,,
,1.715007,-1.70E-11,,
,1.717007,-1.69E-11,,
,1.719007,-1.61E-11,,
,1.721007,-1.47E-11,,
,1.723007,-1.33E-11,,
,1.725007,-1.25E-11,,
,1.727007,-1.29E-11,,
,1.729007,-1.39E-11,,
,1.731007,-1.49E-11,,
,1.733007,-1.53E-11,,
,1.735007,-1.49E-11,,
,1.737007,-1.39E-11,,
,1.739007,-1.26E-11,,
,1.741007,-1.14E-11,,
,1.743007,-1.11E-11,,
,1.745007,-1.15E-11,,
,1.747007,-1.25E-11,,
,1.749007,-1.31E-11,,
,1.751007,-1.27E-11,,
,1.753007,-1.16E-11,,
,1.755007,-9.79E-12,,
,1.757007,-8.61E-12,,
,1.759007,-8.08E-12,,
,1.761007,-8.83E-12,,
,1.763007,-9.58E-12,,
,1.765007,-1.01E-11,,
,1.767007,-9.90E-12,,
,1.769007,-9.04E-12,,
,1.771007,-7.43E-12,,
,1.773007,-5.82E-12,,
,1.775007,-4.53E-12,,
,1.777007,-4.32E-12,,
,1.779007,-4.53E-12,,
,1.781007,-5.07E-12,,
,1.783007,-4.53E-12,,
,1.785007,-3.46E-12,,
,1.787007,-1.53E-12,,
,1.789007,-2.53E-14,,
,1.791007,1.16E-12,,
,1.793007,1.69E-12,,
,1.795007,1.69E-12,,
,1.797007,1.48E-12,,
,1.799007,1.48E-12,,
,1.801007,2.34E-12,,
,1.803007,4.16E-12,,
,1.805007,6.31E-12,,
,1.807007,8.24E-12,,
,1.809007,9.64E-12,,
,1.811007,9.85E-12,,
,1.813007,9.42E-12,,
,1.815007,8.99E-12,,
,1.817007,9.53E-12,,
,1.819007,1.10E-11,,
,1.821007,1.31E-11,,
,1.823007,1.51E-11,,
,1.825007,1.64E-11,,
,1.827007,1.68E-11,,
,1.829007,1.65E-11,,
,1.831007,1.63E-11,,
,1.833007,1.67E-11,,
,1.835007,1.79E-11,,
,1.837007,1.96E-11,,
,1.839007,2.13E-11,,
,1.841007,2.28E-11,,
,1.843007,2.35E-11,,
,1.845007,2.33E-11,,
,1.847007,2.28E-11,,
,1.849007,2.29E-11,,
,1.851007,2.39E-11,,
,1.853007,2.54E-11,,
,1.855007,2.75E-11,,
,1.857007,2.91E-11,,
,1.859007,2.97E-11,,
,1.861007,2.93E-11,,
,1.863007,2.85E-11,,
,1.865007,2.82E-11,,
,1.867007,2.83E-11,,
,1.869007,2.94E-11,,
,1.871007,3.08E-11,,
,1.873007,3.24E-11,,
,1.875007,3.30E-11,,
,1.877007,3.28E-11,,
,1.879007,3.19E-11,,
,1.881007,3.10E-11,,
,1.883007,3.06E-11,,
,1.885007,3.10E-11,,
,1.887007,3.19E-11,,
,1.889007,3.30E-11,,
,1.891007,3.34E-11,,
,1.893007,3.31E-11,,
,1.895007,3.21E-11,,
,1.897007,3.10E-11,,
,1.899007,3.00E-11,,
,1.901007,2.99E-11,,
,1.903007,3.06E-11,,
,1.905007,3.14E-11,,
,1.907007,3.21E-11,,
,1.909007,3.19E-11,,
,1.911007,3.09E-11,,
,1.913007,2.95E-11,,
,1.915007,2.86E-11,,
,1.917007,2.83E-11,,
,1.919007,2.87E-11,,
,1.921007,2.94E-11,,
,1.923007,3.02E-11,,
,1.925007,3.04E-11,,
,1.927007,2.95E-11,,
,1.929007,2.80E-11,,
,1.931007,2.67E-11,,
,1.933007,2.63E-11,,
,1.935007,2.67E-11,,
,1.937007,2.78E-11,,
,1.939007,2.90E-11,,
,1.941007,2.95E-11,,
,1.943007,2.92E-11,,
,1.945007,2.78E-11,,
,1.947007,2.66E-11,,
,1.949007,2.57E-11,,
,1.951007,2.58E-11,,
,1.953007,2.66E-11,,
,1.955007,2.78E-11,,
,1.957007,2.86E-11,,
,1.959007,2.87E-11,,
,1.961007,2.78E-11,,
,1.963007,2.66E-11,,
,1.965007,2.53E-11,,
,1.967007,2.50E-11,,
,1.969007,2.54E-11,,
,1.971007,2.67E-11,,
,1.973007,2.79E-11,,
,1.975007,2.82E-11,,
,1.977007,2.74E-11,,
,1.979007,2.61E-11,,
,1.981007,2.51E-11,,
,1.983007,2.47E-11,,
,1.985007,2.50E-11,,
,1.987007,2.56E-11,,
,1.989007,2.68E-11,,
,1.991007,2.71E-11,,
,1.993007,2.68E-11,,
,1.995007,2.56E-11,,
,1.997007,2.43E-11,,
,1.999007,2.34E-11,,
,2.001007,2.33E-11,,
,2.003007,2.41E-11,,
,2.005007,2.54E-11,,
,2.007007,2.63E-11,,
,2.009007,2.62E-11,,
,2.011007,2.52E-11,,
,2.013007,2.38E-11,,
,2.015007,2.28E-11,,
,2.017007,2.25E-11,,
,2.019007,2.31E-11,,
,2.021007,2.40E-11,,
,2.023007,2.52E-11,,
,2.025007,2.56E-11,,
,2.027007,2.49E-11,,
,2.029007,2.34E-11,,
,2.031007,2.20E-11,,
,2.033007,2.17E-11,,
,2.035007,2.22E-11,,
,2.037007,2.34E-11,,
,2.039007,2.46E-11,,
,2.041007,2.53E-11,,
,2.043007,2.51E-11,,
,2.045007,2.42E-11,,
,2.047007,2.31E-11,,
,2.049007,2.23E-11,,
,2.051007,2.23E-11,,
,2.053007,2.32E-11,,
,2.055007,2.45E-11,,
,2.057007,2.51E-11,,
,2.059007,2.51E-11,,
,2.061007,2.40E-11,,
,2.063007,2.25E-11,,
,2.065007,2.12E-11,,
,2.067007,2.09E-11,,
,2.069007,2.21E-11,,
,2.071007,2.33E-11,,
,2.073007,2.47E-11,,
,2.075007,2.49E-11,,
,2.077007,2.45E-11,,
,2.079007,2.32E-11,,
,2.081007,2.20E-11,,
,2.083007,2.14E-11,,
,2.085007,2.18E-11,,
,2.087007,2.27E-11,,
,2.089007,2.40E-11,,
,2.091007,2.49E-11,,
,2.093007,2.49E-11,,
,2.095007,2.41E-11,,
,2.097007,2.28E-11,,
,2.099007,2.23E-11,,
,2.101007,2.24E-11,,
,2.103007,2.35E-11,,
,2.105007,2.49E-11,,
,2.107007,2.60E-11,,
,2.109007,2.62E-11,,
,2.111007,2.55E-11,,
,2.113007,2.43E-11,,
,2.115007,2.37E-11,,
,2.117007,2.33E-11,,
,2.119007,2.40E-11,,
,2.121007,2.50E-11,,
,2.123007,2.63E-11,,
,2.125007,2.66E-11,,
,2.127007,2.63E-11,,
,2.129007,2.51E-11,,
,2.131007,2.42E-11,,
,2.133007,2.38E-11,,
,2.135007,2.46E-11,,
,2.137007,2.56E-11,,
,2.139007,2.71E-11,,
,2.141007,2.80E-11,,
,2.143007,2.79E-11,,
,2.145007,2.67E-11,,
,2.147007,2.55E-11,,
,2.149007,2.49E-11,,
,2.151007,2.52E-11,,
,2.153007,2.57E-11,,
,2.155007,2.70E-11,,
,2.157007,2.78E-11,,
,2.159007,2.80E-11,,
,2.161007,2.70E-11,,
,2.163007,2.57E-11,,
,2.165007,2.47E-11,,
,2.167007,2.42E-11,,
,2.169007,2.46E-11,,
,2.171007,2.54E-11,,
,2.173007,2.63E-11,,
,2.175007,2.67E-11,,
,2.177007,2.61E-11,,
,2.179007,2.51E-11,,
,2.181007,2.41E-11,,
,2.183007,2.36E-11,,
,2.185007,2.38E-11,,
,2.187007,2.46E-11,,
,2.189007,2.57E-11,,
,2.191007,2.62E-11,,
,2.193007,2.56E-11,,
,2.195007,2.41E-11,,
,2.197007,2.26E-11,,
,2.199007,2.16E-11,,
,2.201007,2.13E-11,,
,2.203007,2.21E-11,,
,2.205007,2.32E-11,,
,2.207007,2.41E-11,,
,2.209007,2.39E-11,,
,2.211007,2.27E-11,,
,2.213007,2.12E-11,,
,2.215007,1.96E-11,,
,2.217007,1.89E-11,,
,2.219007,1.89E-11,,
,2.221007,1.96E-11,,
,2.223007,2.01E-11,,
,2.225007,1.98E-11,,
,2.227007,1.89E-11,,
,2.229007,1.76E-11,,
,2.231007,1.61E-11,,
,2.233007,1.52E-11,,
,2.235007,1.52E-11,,
,2.237007,1.61E-11,,
,2.239007,1.68E-11,,
,2.241007,1.68E-11,,
,2.243007,1.59E-11,,
,2.245007,1.43E-11,,
,2.247007,1.28E-11,,
,2.249007,1.17E-11,,
,2.251007,1.11E-11,,
,2.253007,1.12E-11,,
,2.255007,1.19E-11,,
,2.257007,1.28E-11,,
,2.259007,1.25E-11,,
,2.261007,1.14E-11,,
,2.263007,9.42E-12,,
,2.265007,7.92E-12,,
,2.267007,7.17E-12,,
,2.269007,7.38E-12,,
,2.271007,7.92E-12,,
,2.273007,8.35E-12,,
,2.275007,8.24E-12,,
,2.277007,7.38E-12,,
,2.279007,5.88E-12,,
,2.281007,4.38E-12,,
,2.283007,3.62E-12,,
,2.285007,3.73E-12,,
,2.287007,4.38E-12,,
,2.289007,5.13E-12,,
,2.291007,5.34E-12,,
,2.293007,4.81E-12,,
,2.295007,3.62E-12,,
,2.297007,2.23E-12,,
,2.299007,1.05E-12,,
,2.301007,7.26E-13,,
,2.303007,1.48E-12,,
,2.305007,2.77E-12,,
,2.307007,3.30E-12,,
,2.309007,3.09E-12,,
,2.311007,1.69E-12,,
,2.313007,5.11E-13,,
,2.315007,-8.84E-13,,
,2.317007,-8.84E-13,,
,2.319007,-3.47E-13,,
,2.321007,8.34E-13,,
,2.323007,1.80E-12,,
,2.325007,2.01E-12,,
,2.327007,1.16E-12,,
,2.329007,-4.55E-13,,
,2.331007,-1.74E-12,,
,2.333007,-2.39E-12,,
,2.335007,-2.28E-12,,
,2.337007,-1.64E-12,,
,2.339007,-5.62E-13,,
,2.341007,-2.53E-14,,
,2.343007,-4.55E-13,,
,2.345007,-1.64E-12,,
,2.347007,-3.03E-12,,
,2.349007,-4.00E-12,,
,2.351007,-4.00E-12,,
,2.353007,-3.35E-12,,
,2.355007,-2.39E-12,,
,2.357007,-2.07E-12,,
,2.359007,-2.39E-12,,
,2.361007,-3.57E-12,,
,2.363007,-5.18E-12,,
,2.365007,-6.36E-12,,
,2.367007,-6.79E-12,,
,2.369007,-6.47E-12,,
,2.371007,-5.50E-12,,
,2.373007,-4.75E-12,,
,2.375007,-4.64E-12,,
,2.377007,-5.61E-12,,
,2.379007,-7.11E-12,,
,2.381007,-8.40E-12,,
,2.383007,-9.47E-12,,
,2.385007,-9.58E-12,,
,2.387007,-9.04E-12,,
,2.389007,-8.08E-12,,
,2.391007,-7.65E-12,,
,2.393007,-8.18E-12,,
,2.395007,-9.79E-12,,
,2.397007,-1.16E-11,,
,2.399007,-1.32E-11,,
,2.401007,-1.37E-11,,
,2.403007,-1.33E-11,,
,2.405007,-1.24E-11,,
,2.407007,-1.14E-11,,
,2.409007,-1.16E-11,,
,2.411007,-1.26E-11,,
,2.413007,-1.43E-11,,
,2.415007,-1.55E-11,,
,2.417007,-1.61E-11,,
,2.419007,-1.61E-11,,
,2.421007,-1.55E-11,,
,2.423007,-1.49E-11,,
,2.425007,-1.51E-11,,
,2.427007,-1.62E-11,,
,2.429007,-1.78E-11,,
,2.431007,-1.91E-11,,
,2.433007,-1.97E-11,,
,2.435007,-1.96E-11,,
,2.437007,-1.88E-11,,
,2.439007,-1.81E-11,,
,2.441007,-1.77E-11,,
,2.443007,-1.85E-11,,
,2.445007,-2.01E-11,,
,2.447007,-2.17E-11,,
,2.449007,-2.27E-11,,
,2.451007,-2.26E-11,,
,2.453007,-2.18E-11,,
,2.455007,-2.07E-11,,
,2.457007,-2.00E-11,,
,2.459007,-2.01E-11,,
,2.461007,-2.12E-11,,
,2.463007,-2.24E-11,,
,2.465007,-2.35E-11,,
,2.467007,-2.39E-11,,
,2.469007,-2.35E-11,,
,2.471007,-2.24E-11,,
,2.473007,-2.13E-11,,
,2.475007,-2.09E-11,,
,2.477007,-2.15E-11,,
,2.479007,-2.28E-11,,
,2.481007,-2.41E-11,,
,2.483007,-2.47E-11,,
,2.485007,-2.47E-11,,
,2.487007,-2.40E-11,,
,2.489007,-2.28E-11,,
,2.491007,-2.20E-11,,
,2.493007,-2.24E-11,,
,2.495007,-2.36E-11,,
,2.497007,-2.53E-11,,
,2.499007,-2.62E-11,,
,2.501007,-2.63E-11,,
,2.503007,-2.56E-11,,
,2.505007,-2.45E-11,,
,2.507007,-2.36E-11,,
,2.509007,-2.35E-11,,
,2.511007,-2.45E-11,,
,2.513007,-2.58E-11,,
,2.515007,-2.65E-11,,
,2.517007,-2.66E-11,,
,2.519007,-2.60E-11,,
,2.521007,-2.49E-11,,
,2.523007,-2.36E-11,,
,2.525007,-2.31E-11,,
,2.527007,-2.40E-11,,
,2.529007,-2.54E-11,,
,2.531007,-2.68E-11,,
,2.533007,-2.71E-11,,
,2.535007,-2.65E-11,,
,2.537007,-2.54E-11,,
,2.539007,-2.41E-11,,
,2.541007,-2.33E-11,,
,2.543007,-2.32E-11,,
,2.545007,-2.41E-11,,
,2.547007,-2.49E-11,,
,2.549007,-2.55E-11,,
,2.551007,-2.49E-11,,
,2.553007,-2.39E-11,,
,2.555007,-2.27E-11,,
,2.557007,-2.16E-11,,
,2.559007,-2.13E-11,,
,2.561007,-2.19E-11,,
,2.563007,-2.32E-11,,
,2.565007,-2.41E-11,,
,2.567007,-2.39E-11,,
,2.569007,-2.30E-11,,
,2.571007,-2.16E-11,,
,2.573007,-2.01E-11,,
,2.575007,-1.91E-11,,
,2.577007,-1.93E-11,,
,2.579007,-2.03E-11,,
,2.581007,-2.12E-11,,
,2.583007,-2.12E-11,,
,2.585007,-2.05E-11,,
,2.587007,-1.91E-11,,
,2.589007,-1.78E-11,,
,2.591007,-1.69E-11,,
,2.593007,-1.67E-11,,
,2.595007,-1.74E-11,,
,2.597007,-1.84E-11,,
,2.599007,-1.88E-11,,
,2.601007,-1.84E-11,,
,2.603007,-1.73E-11,,
,2.605007,-1.58E-11,,
,2.607007,-1.45E-11,,
,2.609007,-1.39E-11,,
,2.611007,-1.45E-11,,
,2.613007,-1.55E-11,,
,2.615007,-1.61E-11,,
,2.617007,-1.59E-11,,
,2.619007,-1.52E-11,,
,2.621007,-1.39E-11,,
,2.623007,-1.28E-11,,
,2.625007,-1.22E-11,,
,2.627007,-1.25E-11,,
,2.629007,-1.36E-11,,
,2.631007,-1.44E-11,,
,2.633007,-1.47E-11,,
,2.635007,-1.39E-11,,
,2.637007,-1.27E-11,,
,2.639007,-1.12E-11,,
,2.641007,-1.02E-11,,
,2.643007,-1.00E-11,,
,2.645007,-1.08E-11,,
,2.647007,-1.19E-11,,
,2.649007,-1.24E-11,,
,2.651007,-1.20E-11,,
,2.653007,-1.08E-11,,
,2.655007,-9.47E-12,,
,2.657007,-8.29E-12,,
,2.659007,-8.18E-12,,
,2.661007,-8.72E-12,,
,2.663007,-9.90E-12,,
,2.665007,-1.04E-11,,
,2.667007,-1.05E-11,,
,2.669007,-9.69E-12,,
,2.671007,-8.51E-12,,
,2.673007,-7.33E-12,,
,2.675007,-6.68E-12,,
,2.677007,-7.22E-12,,
,2.679007,-8.18E-12,,
,2.681007,-9.15E-12,,
,2.683007,-9.15E-12,,
,2.685007,-8.61E-12,,
,2.687007,-7.65E-12,,
,2.689007,-6.68E-12,,
,2.691007,-5.82E-12,,
,2.693007,-6.14E-12,,
,2.695007,-7.11E-12,,
,2.697007,-8.40E-12,,
,2.699007,-8.51E-12,,
,2.701007,-8.18E-12,,
,2.703007,-7.11E-12,,
,2.705007,-6.14E-12,,
,2.707007,-5.29E-12,,
,2.709007,-5.29E-12,,
,2.711007,-6.25E-12,,
,2.713007,-7.43E-12,,
,2.715007,-8.40E-12,,
,2.717007,-8.40E-12,,
,2.719007,-7.54E-12,,
,2.721007,-6.14E-12,,
,2.723007,-4.96E-12,,
,2.725007,-4.64E-12,,
,2.727007,-5.39E-12,,
,2.729007,-6.57E-12,,
,2.731007,-7.65E-12,,
,2.733007,-7.65E-12,,
,2.735007,-7.22E-12,,
,2.737007,-5.82E-12,,
,2.739007,-4.43E-12,,
,2.741007,-3.25E-12,,
,2.743007,-3.46E-12,,
,2.745007,-4.43E-12,,
,2.747007,-5.50E-12,,
,2.749007,-5.93E-12,,
,2.751007,-5.82E-12,,
,2.753007,-5.18E-12,,
,2.755007,-3.89E-12,,
,2.757007,-2.71E-12,,
,2.759007,-2.28E-12,,
,2.761007,-2.92E-12,,
,2.763007,-3.89E-12,,
,2.765007,-4.64E-12,,
,2.767007,-4.75E-12,,
,2.769007,-3.78E-12,,
,2.771007,-2.07E-12,,
,2.773007,-4.55E-13,,
,2.775007,2.97E-13,,
,2.777007,8.20E-14,,
,2.779007,-7.77E-13,,
,2.781007,-1.74E-12,,
,2.783007,-1.85E-12,,
,2.785007,-1.21E-12,,
,2.787007,-2.53E-14,,
,2.789007,1.05E-12,,
,2.791007,1.80E-12,,
,2.793007,1.91E-12,,
,2.795007,1.16E-12,,
,2.797007,8.20E-14,,
,2.799007,-3.47E-13,,
,2.801007,8.20E-14,,
,2.803007,1.37E-12,,
,2.805007,2.87E-12,,
,2.807007,4.05E-12,,
,2.809007,4.48E-12,,
,2.811007,3.84E-12,,
,2.813007,2.98E-12,,
,2.815007,2.23E-12,,
,2.817007,2.34E-12,,
,2.819007,3.09E-12,,
,2.821007,4.48E-12,,
,2.823007,5.77E-12,,
,2.825007,6.42E-12,,
,2.827007,6.09E-12,,
,2.829007,5.34E-12,,
,2.831007,4.59E-12,,
,2.833007,4.48E-12,,
,2.835007,5.02E-12,,
,2.837007,6.52E-12,,
,2.839007,8.13E-12,,
,2.841007,9.10E-12,,
,2.843007,8.89E-12,,
,2.845007,8.13E-12,,
,2.847007,7.49E-12,,
,2.849007,7.27E-12,,
,2.851007,7.60E-12,,
,2.853007,8.56E-12,,
,2.855007,1.01E-11,,
,2.857007,1.11E-11,,
,2.859007,1.15E-11,,
,2.861007,1.08E-11,,
,2.863007,1.01E-11,,
,2.865007,9.42E-12,,
,2.867007,9.42E-12,,
,2.869007,1.02E-11,,
,2.871007,1.14E-11,,
,2.873007,1.25E-11,,
,2.875007,1.31E-11,,
,2.877007,1.28E-11,,
,2.879007,1.20E-11,,
,2.881007,1.12E-11,,
,2.883007,1.10E-11,,
,2.885007,1.14E-11,,
,2.887007,1.22E-11,,
,2.889007,1.33E-11,,
,2.891007,1.37E-11,,
,2.893007,1.35E-11,,
,2.895007,1.24E-11,,
,2.897007,1.18E-11,,
,2.899007,1.15E-11,,
,2.901007,1.22E-11,,
,2.903007,1.33E-11,,
,2.905007,1.44E-11,,
,2.907007,1.49E-11,,
,2.909007,1.48E-11,,
,2.911007,1.40E-11,,
,2.913007,1.29E-11,,
,2.915007,1.21E-11,,
,2.917007,1.21E-11,,
,2.919007,1.29E-11,,
,2.921007,1.39E-11,,
,2.923007,1.48E-11,,
,2.925007,1.52E-11,,
,2.927007,1.46E-11,,
,2.929007,1.35E-11,,
,2.931007,1.23E-11,,
,2.933007,1.19E-11,,
,2.935007,1.22E-11,,
,2.937007,1.34E-11,,
,2.939007,1.46E-11,,
,2.941007,1.53E-11,,
,2.943007,1.50E-11,,
,2.945007,1.38E-11,,
,2.947007,1.25E-11,,
,2.949007,1.17E-11,,
,2.951007,1.18E-11,,
,2.953007,1.24E-11,,
,2.955007,1.36E-11,,
,2.957007,1.44E-11,,
,2.959007,1.45E-11,,
,2.961007,1.34E-11,,
,2.963007,1.24E-11,,
,2.965007,1.17E-11,,
,2.967007,1.18E-11,,
,2.969007,1.21E-11,,
,2.971007,1.30E-11,,
,2.973007,1.37E-11,,
,2.975007,1.38E-11,,
,2.977007,1.29E-11,,
,2.979007,1.15E-11,,
,2.981007,1.05E-11,,
,2.983007,1.04E-11,,
,2.985007,1.11E-11,,
,2.987007,1.24E-11,,
,2.989007,1.39E-11,,
,2.991007,1.46E-11,,
,2.993007,1.40E-11,,
,2.995007,1.26E-11,,
,2.997007,1.12E-11,,
,2.999007,1.04E-11,,
,3.001007,1.03E-11,,
,3.003007,1.09E-11,,
,3.005007,1.19E-11,,
,3.007007,1.26E-11,,
,3.009007,1.28E-11,,
,3.011007,1.23E-11,,
,3.013007,1.16E-11,,
,3.015007,1.08E-11,,
,3.017007,1.07E-11,,
,3.019007,1.10E-11,,
,3.021007,1.20E-11,,
,3.023007,1.29E-11,,
,3.025007,1.32E-11,,
,3.027007,1.28E-11,,
,3.029007,1.17E-11,,
,3.031007,1.09E-11,,
,3.033007,1.07E-11,,
,3.035007,1.12E-11,,
,3.037007,1.21E-11,,
,3.039007,1.32E-11,,
,3.041007,1.38E-11,,
,3.043007,1.37E-11,,
,3.045007,1.26E-11,,
,3.047007,1.18E-11,,
,3.049007,1.11E-11,,
,3.051007,1.17E-11,,
,3.053007,1.24E-11,,
,3.055007,1.39E-11,,
,3.057007,1.47E-11,,
,3.059007,1.47E-11,,
,3.061007,1.36E-11,,
,3.063007,1.23E-11,,
,3.065007,1.15E-11,,
,3.067007,1.12E-11,,
,3.069007,1.20E-11,,
,3.071007,1.33E-11,,
,3.073007,1.46E-11,,
,3.075007,1.50E-11,,
,3.077007,1.44E-11,,
,3.079007,1.33E-11,,
,3.081007,1.22E-11,,
,3.083007,1.19E-11,,
,3.085007,1.23E-11,,
,3.087007,1.35E-11,,
,3.089007,1.47E-11,,
,3.091007,1.55E-11,,
,3.093007,1.53E-11,,
,3.095007,1.45E-11,,
,3.097007,1.34E-11,,
,3.099007,1.29E-11,,
,3.101007,1.30E-11,,
,3.103007,1.35E-11,,
,3.105007,1.47E-11,,
,3.107007,1.56E-11,,
,3.109007,1.59E-11,,
,3.111007,1.51E-11,,
,3.113007,1.44E-11,,
,3.115007,1.39E-11,,
,3.117007,1.41E-11,,
,3.119007,1.48E-11,,
,3.121007,1.60E-11,,
,3.123007,1.67E-11,,
,3.125007,1.68E-11,,
,3.127007,1.56E-11,,
,3.129007,1.38E-11,,
,3.131007,1.20E-11,,
,3.133007,1.11E-11,,
,3.135007,1.14E-11,,
,3.137007,1.24E-11,,
,3.139007,1.36E-11,,
,3.141007,1.45E-11,,
,3.143007,1.40E-11,,
,3.145007,1.31E-11,,
,3.147007,1.18E-11,,
,3.149007,1.09E-11,,
,3.151007,1.07E-11,,
,3.153007,1.10E-11,,
,3.155007,1.21E-11,,
,3.157007,1.26E-11,,
,3.159007,1.25E-11,,
,3.161007,1.16E-11,,
,3.163007,1.02E-11,,
,3.165007,9.31E-12,,
,3.167007,9.10E-12,,
,3.169007,1.01E-11,,
,3.171007,1.11E-11,,
,3.173007,1.21E-11,,
,3.175007,1.24E-11,,
,3.177007,1.19E-11,,
,3.179007,1.05E-11,,
,3.181007,9.21E-12,,
,3.183007,8.56E-12,,
,3.185007,8.89E-12,,
,3.187007,9.64E-12,,
,3.189007,1.07E-11,,
,3.191007,1.12E-11,,
,3.193007,1.07E-11,,
,3.195007,9.31E-12,,
,3.197007,7.92E-12,,
,3.199007,6.85E-12,,
,3.201007,6.63E-12,,
,3.203007,6.85E-12,,
,3.205007,7.81E-12,,
,3.207007,8.46E-12,,
,3.209007,8.35E-12,,
,3.211007,7.17E-12,,
,3.213007,5.77E-12,,
,3.215007,4.59E-12,,
,3.217007,4.38E-12,,
,3.219007,4.59E-12,,
,3.221007,5.24E-12,,
,3.223007,5.88E-12,,
,3.225007,5.88E-12,,
,3.227007,5.02E-12,,
,3.229007,3.30E-12,,
,3.231007,2.23E-12,,
,3.233007,2.01E-12,,
,3.235007,2.55E-12,,
,3.237007,3.30E-12,,
,3.239007,4.16E-12,,
,3.241007,4.59E-12,,
,3.243007,4.16E-12,,
,3.245007,2.87E-12,,
,3.247007,1.37E-12,,
,3.249007,2.97E-13,,
,3.251007,1.89E-13,,
,3.253007,9.41E-13,,
,3.255007,1.91E-12,,
,3.257007,2.55E-12,,
,3.259007,2.44E-12,,
,3.261007,1.69E-12,,
,3.263007,6.19E-13,,
,3.265007,-4.55E-13,,
,3.267007,-9.92E-13,,
,3.269007,-7.77E-13,,
,3.271007,4.04E-13,,
,3.273007,1.48E-12,,
,3.275007,1.80E-12,,
,3.277007,1.16E-12,,
,3.279007,-2.40E-13,,
,3.281007,-1.42E-12,,
,3.283007,-2.17E-12,,
,3.285007,-1.74E-12,,
,3.287007,-6.69E-13,,
,3.289007,5.11E-13,,
,3.291007,9.41E-13,,
,3.293007,5.11E-13,,
,3.295007,-5.62E-13,,
,3.297007,-1.85E-12,,
,3.299007,-2.71E-12,,
,3.301007,-2.92E-12,,
,3.303007,-1.85E-12,,
,3.305007,-5.62E-13,,
,3.307007,2.97E-13,,
,3.309007,2.97E-13,,
,3.311007,-4.55E-13,,
,3.313007,-1.53E-12,,
,3.315007,-2.39E-12,,
,3.317007,-2.39E-12,,
,3.319007,-1.31E-12,,
,3.321007,8.20E-14,,
,3.323007,9.41E-13,,
,3.325007,1.05E-12,,
,3.327007,1.89E-13,,
,3.329007,-8.84E-13,,
,3.331007,-2.07E-12,,
,3.333007,-2.49E-12,,
,3.335007,-2.07E-12,,
,3.337007,-7.77E-13,,
,3.339007,7.26E-13,,
,3.341007,1.48E-12,,
,3.343007,1.05E-12,,
,3.345007,-2.40E-13,,
,3.347007,-1.64E-12,,
,3.349007,-2.28E-12,,
,3.351007,-2.39E-12,,
,3.353007,-1.74E-12,,
,3.355007,-5.62E-13,,
,3.357007,5.11E-13,,
,3.359007,7.26E-13,,
,3.361007,-1.33E-13,,
,3.363007,-1.42E-12,,
,3.365007,-2.17E-12,,
,3.367007,-2.17E-12,,
,3.369007,-1.53E-12,,
,3.371007,-2.53E-14,,
,3.373007,1.05E-12,,
,3.375007,1.59E-12,,
,3.377007,7.26E-13,,
,3.379007,-5.62E-13,,
,3.381007,-1.74E-12,,
,3.383007,-2.17E-12,,
,3.385007,-1.96E-12,,
,3.387007,-5.62E-13,,
,3.389007,7.26E-13,,
,3.391007,1.59E-12,,
,3.393007,1.26E-12,,
,3.395007,1.89E-13,,
,3.397007,-8.84E-13,,
,3.399007,-1.74E-12,,
,3.401007,-1.96E-12,,
,3.403007,-1.21E-12,,
,3.405007,-2.53E-14,,
,3.407007,1.05E-12,,
,3.409007,1.05E-12,,
,3.411007,1.89E-13,,
,3.413007,-9.92E-13,,
,3.415007,-1.85E-12,,
,3.417007,-1.85E-12,,
,3.419007,-9.92E-13,,
,3.421007,5.11E-13,,
,3.423007,1.59E-12,,
,3.425007,1.80E-12,,
,3.427007,9.41E-13,,
,3.429007,-4.55E-13,,
,3.431007,-1.74E-12,,
,3.433007,-2.17E-12,,
,3.435007,-1.64E-12,,
,3.437007,-2.40E-13,,
,3.439007,9.41E-13,,
,3.441007,1.59E-12,,
,3.443007,7.26E-13,,
,3.445007,-5.62E-13,,
,3.447007,-1.85E-12,,
,3.449007,-2.17E-12,,
,3.451007,-1.96E-12,,
,3.453007,-1.10E-12,,
,3.455007,1.89E-13,,
,3.457007,1.16E-12,,
,3.459007,1.05E-12,,
,3.461007,-2.53E-14,,
,3.463007,-1.31E-12,,
,3.465007,-2.28E-12,,
,3.467007,-2.28E-12,,
,3.469007,-1.53E-12,,
,3.471007,-1.33E-13,,
,3.473007,1.05E-12,,
,3.475007,1.48E-12,,
,3.477007,9.41E-13,,
,3.479007,-4.55E-13,,
,3.481007,-1.74E-12,,
,3.483007,-2.07E-12,,
,3.485007,-1.64E-12,,
,3.487007,-3.47E-13,,
,3.489007,8.34E-13,,
,3.491007,1.48E-12,,
,3.493007,1.05E-12,,
,3.495007,-1.33E-13,,
,3.497007,-1.21E-12,,
,3.499007,-1.74E-12,,
,3.501007,-1.53E-12,,
,3.503007,-7.77E-13,,
,3.505007,2.97E-13,,
,3.507007,1.16E-12,,
,3.509007,1.26E-12,,
,3.511007,2.97E-13,,
,3.513007,-1.10E-12,,
,3.515007,-2.07E-12,,
,3.517007,-1.96E-12,,
,3.519007,-1.21E-12,,
,3.521007,2.97E-13,,
,3.523007,1.48E-12,,
,3.525007,2.12E-12,,
,3.527007,1.37E-12,,
,3.529007,2.97E-13,,
,3.531007,-7.77E-13,,
,3.533007,-9.92E-13,,
,3.535007,-5.62E-13,,
,3.537007,7.26E-13,,
,3.539007,2.01E-12,,
,3.541007,2.77E-12,,
,3.543007,2.44E-12,,
,3.545007,1.37E-12,,
,3.547007,1.89E-13,,
,3.549007,-4.55E-13,,
,3.551007,-1.33E-13,,
,3.553007,7.26E-13,,
,3.555007,2.01E-12,,
,3.557007,2.66E-12,,
,3.559007,2.77E-12,,
,3.561007,1.69E-12,,
,3.563007,8.34E-13,,
,3.565007,1.89E-13,,
,3.567007,4.04E-13,,
,3.569007,1.16E-12,,
,3.571007,2.23E-12,,
,3.573007,3.41E-12,,
,3.575007,3.62E-12,,
,3.577007,3.09E-12,,
,3.579007,1.69E-12,,
,3.581007,8.34E-13,,
,3.583007,5.11E-13,,
,3.585007,1.37E-12,,
,3.587007,2.77E-12,,
,3.589007,4.16E-12,,
,3.591007,4.81E-12,,
,3.593007,4.27E-12,,
,3.595007,3.20E-12,,
,3.597007,1.80E-12,,
,3.599007,1.26E-12,,
,3.601007,1.48E-12,,
,3.603007,2.55E-12,,
,3.605007,4.05E-12,,
,3.607007,5.13E-12,,
,3.609007,5.34E-12,,
,3.611007,4.38E-12,,
,3.613007,3.20E-12,,
,3.615007,2.44E-12,,
,3.617007,2.23E-12,,
,3.619007,3.30E-12,,
,3.621007,4.70E-12,,
,3.623007,6.09E-12,,
,3.625007,6.42E-12,,
,3.627007,5.99E-12,,
,3.629007,5.13E-12,,
,3.631007,4.27E-12,,
,3.633007,4.05E-12,,
,3.635007,4.48E-12,,
,3.637007,5.45E-12,,
,3.639007,6.42E-12,,
,3.641007,6.95E-12,,
,3.643007,6.74E-12,,
,3.645007,5.56E-12,,
,3.647007,4.27E-12,,
,3.649007,3.52E-12,,
,3.651007,3.84E-12,,
,3.653007,5.02E-12,,
,3.655007,6.31E-12,,
,3.657007,7.17E-12,,
,3.659007,6.85E-12,,
,3.661007,5.66E-12,,
,3.663007,4.27E-12,,
,3.665007,3.52E-12,,
,3.667007,3.41E-12,,
,3.669007,4.27E-12,,
,3.671007,5.34E-12,,
,3.673007,6.52E-12,,
,3.675007,6.95E-12,,
,3.677007,6.52E-12,,
,3.679007,5.24E-12,,
,3.681007,4.05E-12,,
,3.683007,3.73E-12,,
,3.685007,4.48E-12,,
,3.687007,5.77E-12,,
,3.689007,6.95E-12,,
,3.691007,7.60E-12,,
,3.693007,7.27E-12,,
,3.695007,6.31E-12,,
,3.697007,5.02E-12,,
,3.699007,4.27E-12,,
,3.701007,4.38E-12,,
,3.703007,5.45E-12,,
,3.705007,6.63E-12,,
,3.707007,7.38E-12,,
,3.709007,7.27E-12,,
,3.711007,6.09E-12,,
,3.713007,4.81E-12,,
,3.715007,3.84E-12,,
,3.717007,4.16E-12,,
,3.719007,4.70E-12,,
,3.721007,5.99E-12,,
,3.723007,6.95E-12,,
,3.725007,7.27E-12,,
,3.727007,6.31E-12,,
,3.729007,4.48E-12,,
,3.731007,3.09E-12,,
,3.733007,2.44E-12,,
,3.735007,2.66E-12,,
,3.737007,3.73E-12,,
,3.739007,4.70E-12,,
,3.741007,5.66E-12,,
,3.743007,5.24E-12,,
,3.745007,4.16E-12,,
,3.747007,2.77E-12,,
,3.749007,2.12E-12,,
,3.751007,2.23E-12,,
,3.753007,3.09E-12,,
,3.755007,4.05E-12,,
,3.757007,4.81E-12,,
,3.759007,4.59E-12,,
,3.761007,3.73E-12,,
,3.763007,2.23E-12,,
,3.765007,1.26E-12,,
,3.767007,8.34E-13,,
,3.769007,1.48E-12,,
,3.771007,2.44E-12,,
,3.773007,3.41E-12,,
,3.775007,3.62E-12,,
,3.777007,2.87E-12,,
,3.779007,1.48E-12,,
,3.781007,2.97E-13,,
,3.783007,-1.33E-13,,
,3.785007,4.04E-13,,
,3.787007,1.48E-12,,
,3.789007,2.44E-12,,
,3.791007,2.87E-12,,
,3.793007,2.23E-12,,
,3.795007,7.26E-13,,
,3.797007,-8.84E-13,,
,3.799007,-2.07E-12,,
,3.801007,-2.17E-12,,
,3.803007,-1.31E-12,,
,3.805007,-1.33E-13,,
,3.807007,6.19E-13,,
,3.809007,1.89E-13,,
,3.811007,-7.77E-13,,
,3.813007,-1.96E-12,,
,3.815007,-2.92E-12,,
,3.817007,-3.46E-12,,
,3.819007,-3.14E-12,,
,3.821007,-2.17E-12,,
,3.823007,-9.92E-13,,
,3.825007,-9.92E-13,,
,3.827007,-1.96E-12,,
,3.829007,-3.57E-12,,
,3.831007,-4.96E-12,,
,3.833007,-5.50E-12,,
,3.835007,-5.39E-12,,
,3.837007,-4.32E-12,,
,3.839007,-3.35E-12,,
,3.841007,-3.03E-12,,
,3.843007,-3.89E-12,,
,3.845007,-5.72E-12,,
,3.847007,-7.22E-12,,
,3.849007,-8.08E-12,,
,3.851007,-7.97E-12,,
,3.853007,-7.54E-12,,
,3.855007,-6.36E-12,,
,3.857007,-5.72E-12,,
,3.859007,-5.82E-12,,
,3.861007,-7.22E-12,,
,3.863007,-8.83E-12,,
,3.865007,-1.01E-11,,
,3.867007,-1.07E-11,,
,3.869007,-1.01E-11,,
,3.871007,-9.04E-12,,
,3.873007,-8.29E-12,,
,3.875007,-8.40E-12,,
,3.877007,-9.37E-12,,
,3.879007,-1.07E-11,,
,3.881007,-1.17E-11,,
,3.883007,-1.22E-11,,
,3.885007,-1.20E-11,,
,3.887007,-1.13E-11,,
,3.889007,-1.04E-11,,
,3.891007,-9.79E-12,,
,3.893007,-1.02E-11,,
,3.895007,-1.15E-11,,
,3.897007,-1.28E-11,,
,3.899007,-1.37E-11,,
,3.901007,-1.37E-11,,
,3.903007,-1.31E-11,,
,3.905007,-1.22E-11,,
,3.907007,-1.15E-11,,
,3.909007,-1.19E-11,,
,3.911007,-1.31E-11,,
,3.913007,-1.44E-11,,
,3.915007,-1.53E-11,,
,3.917007,-1.53E-11,,
,3.919007,-1.46E-11,,
,3.921007,-1.33E-11,,
,3.923007,-1.25E-11,,
,3.925007,-1.26E-11,,
,3.927007,-1.34E-11,,
,3.929007,-1.48E-11,,
,3.931007,-1.59E-11,,
,3.933007,-1.66E-11,,
,3.935007,-1.62E-11,,
,3.937007,-1.54E-11,,
,3.939007,-1.40E-11,,
,3.941007,-1.33E-11,,
,3.943007,-1.34E-11,,
,3.945007,-1.46E-11,,
,3.947007,-1.56E-11,,
,3.949007,-1.60E-11,,
,3.951007,-1.58E-11,,
,3.953007,-1.52E-11,,
,3.955007,-1.40E-11,,
,3.957007,-1.30E-11,,
,3.959007,-1.28E-11,,
,3.961007,-1.39E-11,,
,3.963007,-1.53E-11,,
,3.965007,-1.62E-11,,
,3.967007,-1.61E-11,,
,3.969007,-1.54E-11,,
,3.971007,-1.38E-11,,
,3.973007,-1.25E-11,,
,3.975007,-1.18E-11,,
,3.977007,-1.26E-11,,
,3.979007,-1.37E-11,,
,3.981007,-1.45E-11,,
,3.983007,-1.45E-11,,
,3.985007,-1.39E-11,,
,3.987007,-1.27E-11,,
,3.989007,-1.12E-11,,
,3.991007,-1.01E-11,,
,3.993007,-9.90E-12,,
,3.995007,-1.07E-11,,
,3.997007,-1.17E-11,,
,3.999007,-1.22E-11,,
,4.001007,-1.19E-11,,
,4.003007,-1.12E-11,,
,4.005007,-1.01E-11,,
,4.007007,-9.15E-12,,
,4.009007,-8.94E-12,,
,4.011007,-9.58E-12,,
,4.013007,-1.04E-11,,
,4.015007,-1.07E-11,,
,4.017007,-1.00E-11,,
,4.019007,-8.83E-12,,
,4.021007,-7.33E-12,,
,4.023007,-6.14E-12,,
,4.025007,-5.93E-12,,
,4.027007,-6.57E-12,,
,4.029007,-7.97E-12,,
,4.031007,-8.94E-12,,
,4.033007,-9.04E-12,,
,4.035007,-8.29E-12,,
,4.037007,-6.90E-12,,
,4.039007,-5.50E-12,,
,4.041007,-4.64E-12,,
,4.043007,-4.86E-12,,
,4.045007,-5.72E-12,,
,4.047007,-6.68E-12,,
,4.049007,-7.11E-12,,
,4.051007,-6.79E-12,,
,4.053007,-5.61E-12,,
,4.055007,-4.21E-12,,
,4.057007,-3.25E-12,,
,4.059007,-3.25E-12,,
,4.061007,-4.00E-12,,
,4.063007,-5.29E-12,,
,4.065007,-5.93E-12,,
,4.067007,-6.04E-12,,
,4.069007,-5.18E-12,,
,4.071007,-3.89E-12,,
,4.073007,-2.49E-12,,
,4.075007,-1.96E-12,,
,4.077007,-2.39E-12,,
,4.079007,-3.25E-12,,
,4.081007,-3.68E-12,,
,4.083007,-3.57E-12,,
,4.085007,-2.82E-12,,
,4.087007,-1.42E-12,,
,4.089007,1.89E-13,,
,4.091007,1.26E-12,,
,4.093007,9.41E-13,,
,4.095007,-2.53E-14,,
,4.097007,-1.10E-12,,
,4.099007,-1.31E-12,,
,4.101007,-9.92E-13,,
,4.103007,1.89E-13,,
,4.105007,1.59E-12,,
,4.107007,2.77E-12,,
,4.109007,3.09E-12,,
,4.111007,2.55E-12,,
,4.113007,1.80E-12,,
,4.115007,1.48E-12,,
,4.117007,1.69E-12,,
,4.119007,2.55E-12,,
,4.121007,3.95E-12,,
,4.123007,5.66E-12,,
,4.125007,6.74E-12,,
,4.127007,6.42E-12,,
,4.129007,5.34E-12,,
,4.131007,4.48E-12,,
,4.133007,4.48E-12,,
,4.135007,5.45E-12,,
,4.137007,6.85E-12,,
,4.139007,8.46E-12,,
,4.141007,9.42E-12,,
,4.143007,9.42E-12,,
,4.145007,8.56E-12,,
,4.147007,7.60E-12,,
,4.149007,7.38E-12,,
,4.151007,8.13E-12,,
,4.153007,9.74E-12,,
,4.155007,1.15E-11,,
,4.157007,1.26E-11,,
,4.159007,1.29E-11,,
,4.161007,1.21E-11,,
,4.163007,1.12E-11,,
,4.165007,1.07E-11,,
,4.167007,1.10E-11,,
,4.169007,1.19E-11,,
,4.171007,1.34E-11,,
,4.173007,1.47E-11,,
,4.175007,1.54E-11,,
,4.177007,1.49E-11,,
,4.179007,1.38E-11,,
,4.181007,1.30E-11,,
,4.183007,1.30E-11,,
,4.185007,1.36E-11,,
,4.187007,1.48E-11,,
,4.189007,1.59E-11,,
,4.191007,1.67E-11,,
,4.193007,1.62E-11,,
,4.195007,1.50E-11,,
,4.197007,1.36E-11,,
,4.199007,1.30E-11,,
,4.201007,1.30E-11,,
,4.203007,1.38E-11,,
,4.205007,1.49E-11,,
,4.207007,1.59E-11,,
,4.209007,1.56E-11,,
,4.211007,1.46E-11,,
,4.213007,1.31E-11,,
,4.215007,1.21E-11,,
,4.217007,1.17E-11,,
,4.219007,1.22E-11,,
,4.221007,1.32E-11,,
,4.223007,1.44E-11,,
,4.225007,1.43E-11,,
,4.227007,1.31E-11,,
,4.229007,1.12E-11,,
,4.231007,9.96E-12,,
,4.233007,9.64E-12,,
,4.235007,9.96E-12,,
,4.237007,1.08E-11,,
,4.239007,1.16E-11,,
,4.241007,1.20E-11,,
,4.243007,1.14E-11,,
,4.245007,1.01E-11,,
,4.247007,8.78E-12,,
,4.249007,8.13E-12,,
,4.251007,8.35E-12,,
,4.253007,8.89E-12,,
,4.255007,9.64E-12,,
,4.257007,1.01E-11,,
,4.259007,9.74E-12,,
,4.261007,8.46E-12,,
,4.263007,6.63E-12,,
,4.265007,5.24E-12,,
,4.267007,4.81E-12,,
,4.269007,5.13E-12,,
,4.271007,6.20E-12,,
,4.273007,6.95E-12,,
,4.275007,6.95E-12,,
,4.277007,5.66E-12,,
,4.279007,4.16E-12,,
,4.281007,2.87E-12,,
,4.283007,2.44E-12,,
,4.285007,2.66E-12,,
,4.287007,3.62E-12,,
,4.289007,4.48E-12,,
,4.291007,4.81E-12,,
,4.293007,3.84E-12,,
,4.295007,2.55E-12,,
,4.297007,1.26E-12,,
,4.299007,5.11E-13,,
,4.301007,5.11E-13,,
,4.303007,1.26E-12,,
,4.305007,2.34E-12,,
,4.307007,3.20E-12,,
,4.309007,3.09E-12,,
,4.311007,2.01E-12,,
,4.313007,6.19E-13,,
,4.315007,-4.55E-13,,
,4.317007,-4.55E-13,,
,4.319007,8.20E-14,,
,4.321007,1.26E-12,,
,4.323007,2.12E-12,,
,4.325007,2.44E-12,,
,4.327007,1.48E-12,,
,4.329007,8.20E-14,,
,4.331007,-1.10E-12,,
,4.333007,-1.42E-12,,
,4.335007,-5.62E-13,,
,4.337007,5.11E-13,,
,4.339007,1.69E-12,,
,4.341007,2.12E-12,,
,4.343007,1.69E-12,,
,4.345007,5.11E-13,,
,4.347007,-6.69E-13,,
,4.349007,-1.21E-12,,
,4.351007,-7.77E-13,,
,4.353007,4.04E-13,,
,4.355007,1.69E-12,,
,4.357007,2.55E-12,,
,4.359007,2.44E-12,,
,4.361007,1.48E-12,,
,4.363007,8.20E-14,,
,4.365007,-9.92E-13,,
,4.367007,-8.84E-13,,
,4.369007,-2.53E-14,,
,4.371007,1.48E-12,,
,4.373007,2.44E-12,,
,4.375007,2.98E-12,,
,4.377007,2.44E-12,,
,4.379007,1.59E-12,,
,4.381007,7.26E-13,,
,4.383007,5.11E-13,,
,4.385007,1.05E-12,,
,4.387007,2.23E-12,,
,4.389007,3.52E-12,,
,4.391007,4.27E-12,,
,4.393007,4.05E-12,,
,4.395007,2.98E-12,,
,4.397007,2.01E-12,,
,4.399007,1.69E-12,,
,4.401007,2.23E-12,,
,4.403007,3.09E-12,,
,4.405007,4.38E-12,,
,4.407007,5.24E-12,,
,4.409007,5.34E-12,,
,4.411007,4.27E-12,,
,4.413007,3.30E-12,,
,4.415007,2.87E-12,,
,4.417007,3.41E-12,,
,4.419007,4.38E-12,,
,4.421007,5.66E-12,,
,4.423007,6.85E-12,,
,4.425007,7.17E-12,,
,4.427007,6.63E-12,,
,4.429007,5.34E-12,,
,4.431007,4.27E-12,,
,4.433007,3.84E-12,,
,4.435007,4.27E-12,,
,4.437007,5.56E-12,,
,4.439007,7.06E-12,,
,4.441007,8.03E-12,,
,4.443007,7.70E-12,,
,4.445007,6.74E-12,,
,4.447007,5.66E-12,,
,4.449007,5.56E-12,,
,4.451007,5.88E-12,,
,4.453007,7.17E-12,,
,4.455007,8.46E-12,,
,4.457007,9.64E-12,,
,4.459007,9.42E-12,,
,4.461007,8.78E-12,,
,4.463007,7.49E-12,,
,4.465007,6.85E-12,,
,4.467007,6.63E-12,,
,4.469007,7.49E-12,,
,4.471007,8.78E-12,,
,4.473007,9.96E-12,,
,4.475007,1.03E-11,,
,4.477007,9.74E-12,,
,4.479007,8.56E-12,,
,4.481007,7.60E-12,,
,4.483007,7.17E-12,,
,4.485007,7.70E-12,,
,4.487007,9.21E-12,,
,4.489007,1.08E-11,,
,4.491007,1.17E-11,,
,4.493007,1.16E-11,,
,4.495007,1.05E-11,,
,4.497007,9.53E-12,,
,4.499007,8.67E-12,,
,4.501007,9.10E-12,,
,4.503007,1.01E-11,,
,4.505007,1.14E-11,,
,4.507007,1.21E-11,,
,4.509007,1.18E-11,,
,4.511007,1.09E-11,,
,4.513007,1.01E-11,,
,4.515007,9.85E-12,,
,4.517007,1.02E-11,,
,4.519007,1.09E-11,,
,4.521007,1.23E-11,,
,4.523007,1.35E-11,,
,4.525007,1.40E-11,,
,4.527007,1.32E-11,,
,4.529007,1.18E-11,,
,4.531007,1.06E-11,,
,4.533007,1.02E-11,,
,4.535007,1.07E-11,,
,4.537007,1.18E-11,,
,4.539007,1.33E-11,,
,4.541007,1.40E-11,,
,4.543007,1.37E-11,,
,4.545007,1.28E-11,,
,4.547007,1.19E-11,,
,4.549007,1.18E-11,,
,4.551007,1.22E-11,,
,4.553007,1.32E-11,,
,4.555007,1.46E-11,,
,4.557007,1.55E-11,,
,4.559007,1.56E-11,,
,4.561007,1.47E-11,,
,4.563007,1.37E-11,,
,4.565007,1.33E-11,,
,4.567007,1.35E-11,,
,4.569007,1.44E-11,,
,4.571007,1.56E-11,,
,4.573007,1.68E-11,,
,4.575007,1.73E-11,,
,4.577007,1.68E-11,,
,4.579007,1.59E-11,,
,4.581007,1.49E-11,,
,4.583007,1.47E-11,,
,4.585007,1.53E-11,,
,4.587007,1.69E-11,,
,4.589007,1.83E-11,,
,4.591007,1.92E-11,,
,4.593007,1.88E-11,,
,4.595007,1.79E-11,,
,4.597007,1.69E-11,,
,4.599007,1.65E-11,,
,4.601007,1.69E-11,,
,4.603007,1.80E-11,,
,4.605007,1.96E-11,,
,4.607007,2.05E-11,,
,4.609007,2.07E-11,,
,4.611007,2.01E-11,,
,4.613007,1.91E-11,,
,4.615007,1.87E-11,,
,4.617007,1.88E-11,,
,4.619007,2.01E-11,,
,4.621007,2.16E-11,,
,4.623007,2.29E-11,,
,4.625007,2.36E-11,,
,4.627007,2.31E-11,,
,4.629007,2.22E-11,,
,4.631007,2.12E-11,,
,4.633007,2.13E-11,,
,4.635007,2.23E-11,,
,4.637007,2.40E-11,,
,4.639007,2.57E-11,,
,4.641007,2.67E-11,,
,4.643007,2.67E-11,,
,4.645007,2.56E-11,,
,4.647007,2.45E-11,,
,4.649007,2.38E-11,,
,4.651007,2.41E-11,,
,4.653007,2.50E-11,,
,4.655007,2.64E-11,,
,4.657007,2.75E-11,,
,4.659007,2.78E-11,,
,4.661007,2.68E-11,,
,4.663007,2.56E-11,,
,4.665007,2.51E-11,,
,4.667007,2.54E-11,,
,4.669007,2.65E-11,,
,4.671007,2.79E-11,,
,4.673007,2.93E-11,,
,4.675007,2.97E-11,,
,4.677007,2.92E-11,,
,4.679007,2.80E-11,,
,4.681007,2.70E-11,,
,4.683007,2.68E-11,,
,4.685007,2.74E-11,,
,4.687007,2.86E-11,,
,4.689007,2.98E-11,,
,4.691007,3.06E-11,,
,4.693007,3.04E-11,,
,4.695007,2.94E-11,,
,4.697007,2.82E-11,,
,4.699007,2.74E-11,,
,4.701007,2.75E-11,,
,4.703007,2.82E-11,,
,4.705007,2.94E-11,,
,4.707007,2.97E-11,,
,4.709007,2.92E-11,,
,4.711007,2.78E-11,,
,4.713007,2.65E-11,,
,4.715007,2.56E-11,,
,4.717007,2.54E-11,,
,4.719007,2.61E-11,,
,4.721007,2.70E-11,,
,4.723007,2.77E-11,,
,4.725007,2.76E-11,,
,4.727007,2.62E-11,,
,4.729007,2.47E-11,,
,4.731007,2.31E-11,,
,4.733007,2.25E-11,,
,4.735007,2.28E-11,,
,4.737007,2.38E-11,,
,4.739007,2.50E-11,,
,4.741007,2.51E-11,,
,4.743007,2.45E-11,,
,4.745007,2.29E-11,,
,4.747007,2.18E-11,,
,4.749007,2.09E-11,,
,4.751007,2.10E-11,,
,4.753007,2.17E-11,,
,4.755007,2.28E-11,,
,4.757007,2.37E-11,,
,4.759007,2.37E-11,,
,4.761007,2.24E-11,,
,4.763007,2.07E-11,,
,4.765007,1.93E-11,,
,4.767007,1.91E-11,,
,4.769007,1.95E-11,,
,4.771007,2.07E-11,,
,4.773007,2.14E-11,,
,4.775007,2.14E-11,,
,4.777007,2.02E-11,,
,4.779007,1.88E-11,,
,4.781007,1.76E-11,,
,4.783007,1.73E-11,,
,4.785007,1.77E-11,,
,4.787007,1.87E-11,,
,4.789007,1.98E-11,,
,4.791007,2.02E-11,,
,4.793007,1.95E-11,,
,4.795007,1.80E-11,,
,4.797007,1.67E-11,,
,4.799007,1.60E-11,,
,4.801007,1.59E-11,,
,4.803007,1.62E-11,,
,4.805007,1.70E-11,,
,4.807007,1.76E-11,,
,4.809007,1.73E-11,,
,4.811007,1.59E-11,,
,4.813007,1.44E-11,,
,4.815007,1.32E-11,,
,4.817007,1.31E-11,,
,4.819007,1.38E-11,,
,4.821007,1.50E-11,,
,4.823007,1.58E-11,,
,4.825007,1.56E-11,,
,4.827007,1.47E-11,,
,4.829007,1.32E-11,,
,4.831007,1.17E-11,,
,4.833007,1.10E-11,,
,4.835007,1.12E-11,,
,4.837007,1.21E-11,,
,4.839007,1.30E-11,,
,4.841007,1.32E-11,,
,4.843007,1.26E-11,,
,4.845007,1.12E-11,,
,4.847007,1.02E-11,,
,4.849007,9.64E-12,,
,4.851007,9.96E-12,,
,4.853007,1.06E-11,,
,4.855007,1.19E-11,,
,4.857007,1.26E-11,,
,4.859007,1.25E-11,,
,4.861007,1.09E-11,,
,4.863007,9.21E-12,,
,4.865007,8.03E-12,,
,4.867007,7.92E-12,,
,4.869007,8.46E-12,,
,4.871007,9.64E-12,,
,4.873007,1.06E-11,,
,4.875007,1.10E-11,,
,4.877007,1.02E-11,,
,4.879007,8.78E-12,,
,4.881007,7.70E-12,,
,4.883007,7.60E-12,,
,4.885007,8.13E-12,,
,4.887007,9.10E-12,,
,4.889007,9.96E-12,,
,4.891007,1.06E-11,,
,4.893007,1.02E-11,,
,4.895007,9.21E-12,,
,4.897007,8.03E-12,,
,4.899007,7.27E-12,,
,4.901007,7.17E-12,,
,4.903007,7.70E-12,,
,4.905007,8.67E-12,,
,4.907007,9.31E-12,,
,4.909007,9.10E-12,,
,4.911007,8.13E-12,,
,4.913007,6.95E-12,,
,4.915007,6.20E-12,,
,4.917007,6.20E-12,,
,4.919007,6.95E-12,,
,4.921007,8.13E-12,,
,4.923007,8.99E-12,,
,4.925007,9.21E-12,,
,4.927007,8.46E-12,,
,4.929007,7.06E-12,,
,4.931007,5.77E-12,,
,4.933007,5.13E-12,,
,4.935007,5.88E-12,,
,4.937007,6.85E-12,,
,4.939007,8.13E-12,,
,4.941007,8.46E-12,,
,4.943007,8.13E-12,,
,4.945007,6.85E-12,,
,4.947007,5.66E-12,,
,4.949007,5.13E-12,,
,4.951007,5.45E-12,,
,4.953007,6.63E-12,,
,4.955007,7.92E-12,,
,4.957007,8.78E-12,,
,4.959007,8.67E-12,,
,4.961007,7.49E-12,,
,4.963007,6.09E-12,,
,4.965007,5.24E-12,,
,4.967007,5.13E-12,,
,4.969007,5.77E-12,,
,4.971007,6.52E-12,,
,4.973007,7.60E-12,,
,4.975007,7.81E-12,,
,4.977007,7.27E-12,,
,4.979007,5.88E-12,,
,4.981007,4.91E-12,,
,4.983007,4.59E-12,,
,4.985007,5.56E-12,,
,4.987007,6.95E-12,,
,4.989007,8.24E-12,,
,4.991007,8.56E-12,,
,4.993007,8.13E-12,,
,4.995007,6.95E-12,,
,4.997007,5.66E-12,,
,4.999007,4.81E-12,,
,5.001007,4.91E-12,,
,5.003007,5.88E-12,,
,5.005007,7.27E-12,,
,5.007007,8.35E-12,,
,5.009007,8.56E-12,,
,5.011007,7.60E-12,,
,5.013007,6.09E-12,,
,5.015007,5.13E-12,,
,5.017007,5.13E-12,,
,5.019007,6.09E-12,,
,5.021007,7.06E-12,,
,5.023007,7.92E-12,,
,5.025007,8.03E-12,,
,5.027007,7.27E-12,,
,5.029007,6.09E-12,,
,5.031007,5.13E-12,,
,5.033007,4.91E-12,,
,5.035007,5.34E-12,,
,5.037007,6.20E-12,,
,5.039007,7.27E-12,,
,5.041007,7.49E-12,,
,5.043007,6.95E-12,,
,5.045007,5.45E-12,,
,5.047007,4.16E-12,,
,5.049007,3.41E-12,,
,5.051007,3.73E-12,,
,5.053007,4.91E-12,,
,5.055007,6.20E-12,,
,5.057007,6.95E-12,,
,5.059007,6.63E-12,,
,5.061007,5.45E-12,,
,5.063007,3.95E-12,,
,5.065007,2.87E-12,,
,5.067007,2.66E-12,,
,5.069007,3.30E-12,,
,5.071007,4.48E-12,,
,5.073007,5.34E-12,,
,5.075007,5.45E-12,,
,5.077007,4.38E-12,,
,5.079007,2.87E-12,,
,5.081007,1.59E-12,,
,5.083007,1.26E-12,,
,5.085007,1.91E-12,,
,5.087007,3.09E-12,,
,5.089007,4.27E-12,,
,5.091007,4.70E-12,,
,5.093007,4.16E-12,,
,5.095007,2.77E-12,,
,5.097007,1.59E-12,,
,5.099007,1.16E-12,,
,5.101007,1.59E-12,,
,5.103007,2.55E-12,,
,5.105007,3.52E-12,,
,5.107007,4.16E-12,,
,5.109007,3.73E-12,,
,5.111007,2.55E-12,,
,5.113007,1.05E-12,,
,5.115007,8.20E-14,,
,5.117007,-2.53E-14,,
,5.119007,7.26E-13,,
,5.121007,2.01E-12,,
,5.123007,3.20E-12,,
,5.125007,3.41E-12,,
,5.127007,2.66E-12,,
,5.129007,1.37E-12,,
,5.131007,1.89E-13,,
,5.133007,-2.40E-13,,
,5.135007,1.89E-13,,
,5.137007,1.37E-12,,
,5.139007,2.77E-12,,
,5.141007,3.09E-12,,
,5.143007,2.55E-12,,
,5.145007,1.26E-12,,
,5.147007,2.97E-13,,
,5.149007,-2.53E-14,,
,5.151007,4.04E-13,,
,5.153007,1.37E-12,,
,5.155007,2.55E-12,,
,5.157007,3.09E-12,,
,5.159007,3.20E-12,,
,5.161007,2.12E-12,,
,5.163007,9.41E-13,,
,5.165007,-2.53E-14,,
,5.167007,-2.40E-13,,
,5.169007,2.97E-13,,
,5.171007,1.26E-12,,
,5.173007,2.44E-12,,
,5.175007,2.77E-12,,
,5.177007,1.91E-12,,
,5.179007,5.11E-13,,
,5.181007,-6.69E-13,,
,5.183007,-9.92E-13,,
,5.185007,-4.55E-13,,
,5.187007,7.26E-13,,
,5.189007,1.80E-12,,
,5.191007,2.23E-12,,
,5.193007,1.80E-12,,
,5.195007,5.11E-13,,
,5.197007,-6.69E-13,,
,5.199007,-1.21E-12,,
,5.201007,-6.69E-13,,
,5.203007,2.97E-13,,
,5.205007,1.37E-12,,
,5.207007,2.12E-12,,
,5.209007,1.69E-12,,
,5.211007,4.04E-13,,
,5.213007,-1.10E-12,,
,5.215007,-1.85E-12,,
,5.217007,-2.07E-12,,
,5.219007,-1.42E-12,,
,5.221007,-2.40E-13,,
,5.223007,1.05E-12,,
,5.225007,1.37E-12,,
,5.227007,5.11E-13,,
,5.229007,-8.84E-13,,
,5.231007,-2.17E-12,,
,5.233007,-2.39E-12,,
,5.235007,-1.85E-12,,
,5.237007,-6.69E-13,,
,5.239007,1.89E-13,,
,5.241007,5.11E-13,,
,5.243007,-2.53E-14,,
,5.245007,-1.10E-12,,
,5.247007,-1.96E-12,,
,5.249007,-2.49E-12,,
,5.251007,-2.07E-12,,
,5.253007,-8.84E-13,,
,5.255007,6.19E-13,,
,5.257007,1.26E-12,,
,5.259007,8.34E-13,,
,5.261007,-2.40E-13,,
,5.263007,-1.31E-12,,
,5.265007,-1.96E-12,,
,5.267007,-1.85E-12,,
,5.269007,-8.84E-13,,
,5.271007,5.11E-13,,
,5.273007,1.48E-12,,
,5.275007,1.69E-12,,
,5.277007,7.26E-13,,
,5.279007,-3.47E-13,,
,5.281007,-1.31E-12,,
,5.283007,-1.42E-12,,
,5.285007,-8.84E-13,,
,5.287007,5.11E-13,,
,5.289007,1.91E-12,,
,5.291007,2.66E-12,,
,5.293007,2.12E-12,,
,5.295007,8.34E-13,,
,5.297007,-5.62E-13,,
,5.299007,-1.42E-12,,
,5.301007,-1.42E-12,,
,5.303007,-6.69E-13,,
,5.305007,5.11E-13,,
,5.307007,1.16E-12,,
,5.309007,1.05E-12,,
,5.311007,-1.33E-13,,
,5.313007,-1.21E-12,,
,5.315007,-1.96E-12,,
,5.317007,-1.64E-12,,
,5.319007,-8.84E-13,,
,5.321007,4.04E-13,,
,5.323007,1.26E-12,,
,5.325007,1.48E-12,,
,5.327007,8.34E-13,,
,5.329007,-5.62E-13,,
,5.331007,-1.53E-12,,
,5.333007,-1.96E-12,,
,5.335007,-1.31E-12,,
,5.337007,-2.53E-14,,
,5.339007,1.26E-12,,
,5.341007,2.01E-12,,
,5.343007,1.48E-12,,
,5.345007,1.89E-13,,
,5.347007,-1.31E-12,,
,5.349007,-1.96E-12,,
,5.351007,-1.64E-12,,
,5.353007,-5.62E-13,,
,5.355007,6.19E-13,,
,5.357007,1.48E-12,,
,5.359007,1.69E-12,,
,5.361007,1.05E-12,,
,5.363007,-1.33E-13,,
,5.365007,-7.77E-13,,
,5.367007,-7.77E-13,,
,5.369007,2.97E-13,,
,5.371007,1.48E-12,,
,5.373007,2.44E-12,,
,5.375007,2.23E-12,,
,5.377007,1.37E-12,,
,5.379007,-1.33E-13,,
,5.381007,-1.10E-12,,
,5.383007,-1.21E-12,,
,5.385007,-3.47E-13,,
,5.387007,1.37E-12,,
,5.389007,2.55E-12,,
,5.391007,3.30E-12,,
,5.393007,2.98E-12,,
,5.395007,2.01E-12,,
,5.397007,8.34E-13,,
,5.399007,-2.53E-14,,
,5.401007,8.20E-14,,
,5.403007,1.05E-12,,
,5.405007,2.34E-12,,
,5.407007,3.30E-12,,
,5.409007,3.41E-12,,
,5.411007,2.66E-12,,
,5.413007,1.59E-12,,
,5.415007,1.05E-12,,
,5.417007,1.26E-12,,
,5.419007,2.12E-12,,
,5.421007,3.41E-12,,
,5.423007,4.38E-12,,
,5.425007,4.59E-12,,
,5.427007,3.84E-12,,
,5.429007,2.66E-12,,
,5.431007,1.59E-12,,
,5.433007,1.37E-12,,
,5.435007,1.91E-12,,
,5.437007,3.52E-12,,
,5.439007,4.70E-12,,
,5.441007,5.45E-12,,
,5.443007,4.91E-12,,
,5.445007,3.95E-12,,
,5.447007,2.66E-12,,
,5.449007,2.34E-12,,
,5.451007,2.77E-12,,
,5.453007,4.16E-12,,
,5.455007,5.34E-12,,
,5.457007,6.09E-12,,
,5.459007,5.88E-12,,
,5.461007,4.81E-12,,
,5.463007,3.62E-12,,
,5.465007,3.09E-12,,
,5.467007,3.52E-12,,
,5.469007,4.70E-12,,
,5.471007,6.31E-12,,
,5.473007,7.49E-12,,
,5.475007,7.81E-12,,
,5.477007,7.06E-12,,
,5.479007,5.88E-12,,
,5.481007,4.70E-12,,
,5.483007,4.38E-12,,
,5.485007,5.13E-12,,
,5.487007,6.63E-12,,
,5.489007,8.03E-12,,
,5.491007,8.56E-12,,
,5.493007,8.35E-12,,
,5.495007,7.49E-12,,
,5.497007,6.63E-12,,
,5.499007,5.88E-12,,
,5.501007,6.20E-12,,
,5.503007,7.17E-12,,
,5.505007,8.56E-12,,
,5.507007,9.21E-12,,
,5.509007,8.99E-12,,
,5.511007,8.24E-12,,
,5.513007,7.06E-12,,
,5.515007,6.52E-12,,
,5.517007,6.63E-12,,
,5.519007,7.81E-12,,
,5.521007,9.31E-12,,
,5.523007,1.05E-11,,
,5.525007,1.07E-11,,
,5.527007,9.85E-12,,
,5.529007,8.56E-12,,
,5.531007,7.27E-12,,
,5.533007,6.95E-12,,
,5.535007,7.49E-12,,
,5.537007,8.89E-12,,
,5.539007,1.03E-11,,
,5.541007,1.11E-11,,
,5.543007,1.09E-11,,
,5.545007,9.96E-12,,
,5.547007,8.78E-12,,
,5.549007,8.24E-12,,
,5.551007,8.56E-12,,
,5.553007,9.64E-12,,
,5.555007,1.09E-11,,
,5.557007,1.16E-11,,
,5.559007,1.16E-11,,
,5.561007,1.04E-11,,
,5.563007,9.21E-12,,
,5.565007,8.13E-12,,
,5.567007,8.24E-12,,
,5.569007,8.78E-12,,
,5.571007,9.74E-12,,
,5.573007,1.05E-11,,
,5.575007,1.03E-11,,
,5.577007,9.21E-12,,
,5.579007,7.60E-12,,
,5.581007,6.74E-12,,
,5.583007,6.63E-12,,
,5.585007,7.38E-12,,
,5.587007,8.46E-12,,
,5.589007,9.53E-12,,
,5.591007,9.74E-12,,
,5.593007,9.10E-12,,
,5.595007,7.60E-12,,
,5.597007,6.31E-12,,
,5.599007,5.88E-12,,
,5.601007,6.52E-12,,
,5.603007,7.70E-12,,
,5.605007,8.89E-12,,
,5.607007,9.53E-12,,
,5.609007,9.10E-12,,
,5.611007,7.92E-12,,
,5.613007,6.31E-12,,
,5.615007,5.77E-12,,
,5.617007,5.77E-12,,
,5.619007,6.52E-12,,
,5.621007,7.70E-12,,
,5.623007,8.78E-12,,
,5.625007,9.42E-12,,
,5.627007,8.67E-12,,
,5.629007,7.81E-12,,
,5.631007,6.63E-12,,
,5.633007,6.31E-12,,
,5.635007,6.85E-12,,
,5.637007,8.35E-12,,
,5.639007,9.64E-12,,
,5.641007,1.01E-11,,
,5.643007,9.31E-12,,
,5.645007,8.03E-12,,
,5.647007,6.85E-12,,
,5.649007,6.31E-12,,
,5.651007,6.85E-12,,
,5.653007,7.70E-12,,
,5.655007,9.10E-12,,
,5.657007,9.85E-12,,
,5.659007,9.85E-12,,
,5.661007,8.67E-12,,
,5.663007,7.38E-12,,
,5.665007,6.63E-12,,
,5.667007,6.85E-12,,
,5.669007,7.70E-12,,
,5.671007,8.99E-12,,
,5.673007,1.01E-11,,
,5.675007,1.02E-11,,
,5.677007,9.21E-12,,
,5.679007,7.81E-12,,
,5.681007,6.74E-12,,
,5.683007,6.74E-12,,
,5.685007,7.27E-12,,
,5.687007,8.56E-12,,
,5.689007,9.64E-12,,
,5.691007,1.01E-11,,
,5.693007,9.64E-12,,
,5.695007,8.35E-12,,
,5.697007,7.38E-12,,
,5.699007,6.74E-12,,
,5.701007,7.06E-12,,
,5.703007,7.92E-12,,
,5.705007,9.10E-12,,
,5.707007,9.85E-12,,
,5.709007,9.74E-12,,
,5.711007,8.78E-12,,
,5.713007,7.60E-12,,
,5.715007,6.85E-12,,
,5.717007,7.27E-12,,
,5.719007,8.24E-12,,
,5.721007,9.64E-12,,
,5.723007,1.04E-11,,
,5.725007,1.05E-11,,
,5.727007,9.53E-12,,
,5.729007,8.13E-12,,
,5.731007,6.95E-12,,
,5.733007,6.74E-12,,
,5.735007,7.38E-12,,
,5.737007,8.78E-12,,
,5.739007,9.85E-12,,
,5.741007,1.03E-11,,
,5.743007,9.53E-12,,
,5.745007,8.35E-12,,
,5.747007,6.95E-12,,
,5.749007,6.31E-12,,
,5.751007,6.20E-12,,
,5.753007,7.27E-12,,
,5.755007,8.46E-12,,
,5.757007,9.42E-12,,
,5.759007,9.21E-12,,
,5.761007,8.24E-12,,
,5.763007,7.17E-12,,
,5.765007,6.63E-12,,
,5.767007,6.52E-12,,
,5.769007,7.17E-12,,
,5.771007,8.24E-12,,
,5.773007,9.31E-12,,
,5.775007,9.53E-12,,
,5.777007,8.67E-12,,
,5.779007,7.27E-12,,
,5.781007,6.20E-12,,
,5.783007,6.09E-12,,
,5.785007,6.95E-12,,
,5.787007,8.13E-12,,
,5.789007,9.31E-12,,
,5.791007,9.53E-12,,
,5.793007,8.99E-12,,
,5.795007,7.49E-12,,
,5.797007,6.31E-12,,
,5.799007,5.66E-12,,
,5.801007,6.09E-12,,
,5.803007,7.17E-12,,
,5.805007,8.35E-12,,
,5.807007,8.89E-12,,
,5.809007,8.46E-12,,
,5.811007,7.27E-12,,
,5.813007,5.88E-12,,
,5.815007,5.02E-12,,
,5.817007,4.91E-12,,
,5.819007,5.99E-12,,
,5.821007,7.38E-12,,
,5.823007,8.46E-12,,
,5.825007,8.46E-12,,
,5.827007,7.49E-12,,
,5.829007,6.31E-12,,
,5.831007,5.24E-12,,
,5.833007,4.81E-12,,
,5.835007,5.13E-12,,
,5.837007,6.09E-12,,
,5.839007,7.27E-12,,
,5.841007,7.70E-12,,
,5.843007,7.17E-12,,
,5.845007,5.77E-12,,
,5.847007,4.70E-12,,
,5.849007,3.95E-12,,
,5.851007,4.59E-12,,
,5.853007,5.88E-12,,
,5.855007,7.49E-12,,
,5.857007,8.13E-12,,
,5.859007,7.70E-12,,
,5.861007,6.52E-12,,
,5.863007,5.13E-12,,
,5.865007,3.95E-12,,
,5.867007,3.84E-12,,
,5.869007,4.70E-12,,
,5.871007,6.20E-12,,
,5.873007,7.17E-12,,
,5.875007,7.17E-12,,
,5.877007,6.20E-12,,
,5.879007,4.91E-12,,
,5.881007,4.05E-12,,
,5.883007,3.84E-12,,
,5.885007,4.48E-12,,
,5.887007,5.45E-12,,
,5.889007,6.85E-12,,
,5.891007,7.17E-12,,
,5.893007,6.74E-12,,
,5.895007,5.24E-12,,
,5.897007,4.38E-12,,
,5.899007,3.84E-12,,
,5.901007,4.05E-12,,
,5.903007,4.70E-12,,
,5.905007,5.66E-12,,
,5.907007,6.42E-12,,
,5.909007,5.88E-12,,
,5.911007,4.81E-12,,
,5.913007,3.41E-12,,
,5.915007,2.77E-12,,
,5.917007,2.87E-12,,
,5.919007,3.84E-12,,
,5.921007,5.02E-12,,
,5.923007,5.77E-12,,
,5.925007,5.66E-12,,
,5.927007,4.70E-12,,
,5.929007,3.20E-12,,
,5.931007,1.91E-12,,
,5.933007,1.69E-12,,
,5.935007,2.23E-12,,
,5.937007,3.41E-12,,
,5.939007,4.48E-12,,
,5.941007,5.02E-12,,
,5.943007,4.48E-12,,
,5.945007,2.98E-12,,
,5.947007,1.48E-12,,
,5.949007,6.19E-13,,
,5.951007,1.05E-12,,
,5.953007,2.12E-12,,
,5.955007,3.52E-12,,
,5.957007,4.16E-12,,
,5.959007,4.05E-12,,
,5.961007,2.66E-12,,
,5.963007,1.26E-12,,
,5.965007,1.89E-13,,
,5.967007,8.20E-14,,
,5.969007,6.19E-13,,
,5.971007,1.69E-12,,
,5.973007,2.66E-12,,
,5.975007,2.55E-12,,
,5.977007,1.37E-12,,
,5.979007,-2.40E-13,,
,5.981007,-1.31E-12,,
,5.983007,-1.42E-12,,
,5.985007,-8.84E-13,,
,5.987007,1.89E-13,,
,5.989007,9.41E-13,,
,5.991007,1.05E-12,,
,5.993007,8.20E-14,,
,5.995007,-1.42E-12,,
,5.997007,-2.82E-12,,
,5.999007,-3.68E-12,,
,6.001007,-3.89E-12,,
,6.003007,-3.03E-12,,
,6.005007,-1.96E-12,,
,6.007007,-9.92E-13,,
,6.009007,-1.42E-12,,
,6.011007,-2.49E-12,,
,6.013007,-4.00E-12,,
,6.015007,-4.96E-12,,
,6.017007,-5.29E-12,,
,6.019007,-4.64E-12,,
,6.021007,-3.68E-12,,
,6.023007,-2.71E-12,,
,6.025007,-2.71E-12,,
,6.027007,-3.57E-12,,
,6.029007,-5.07E-12,,
,6.031007,-6.25E-12,,
,6.033007,-6.79E-12,,
,6.035007,-6.57E-12,,
,6.037007,-5.82E-12,,
,6.039007,-4.75E-12,,
,6.041007,-4.43E-12,,
,6.043007,-4.96E-12,,
,6.045007,-6.25E-12,,
,6.047007,-7.22E-12,,
,6.049007,-7.65E-12,,
,6.051007,-7.43E-12,,
,6.053007,-6.47E-12,,
,6.055007,-5.39E-12,,
,6.057007,-4.53E-12,,
,6.059007,-4.86E-12,,
,6.061007,-6.04E-12,,
,6.063007,-7.43E-12,,
,6.065007,-8.51E-12,,
,6.067007,-8.61E-12,,
,6.069007,-7.97E-12,,
,6.071007,-6.68E-12,,
,6.073007,-5.82E-12,,
,6.075007,-5.93E-12,,
,6.077007,-7.00E-12,,
,6.079007,-8.40E-12,,
,6.081007,-9.26E-12,,
,6.083007,-9.47E-12,,
,6.085007,-8.61E-12,,
,6.087007,-7.33E-12,,
,6.089007,-6.04E-12,,
,6.091007,-5.61E-12,,
,6.093007,-6.04E-12,,
,6.095007,-7.22E-12,,
,6.097007,-8.29E-12,,
,6.099007,-8.94E-12,,
,6.101007,-8.61E-12,,
,6.103007,-7.75E-12,,
,6.105007,-6.79E-12,,
,6.107007,-6.04E-12,,
,6.109007,-6.47E-12,,
,6.111007,-7.33E-12,,
,6.113007,-8.61E-12,,
,6.115007,-9.04E-12,,
,6.117007,-8.72E-12,,
,6.119007,-7.43E-12,,
,6.121007,-6.04E-12,,
,6.123007,-5.18E-12,,
,6.125007,-5.29E-12,,
,6.127007,-6.36E-12,,
,6.129007,-7.75E-12,,
,6.131007,-8.94E-12,,
,6.133007,-8.94E-12,,
,6.135007,-8.08E-12,,
,6.137007,-6.47E-12,,
,6.139007,-5.18E-12,,
,6.141007,-4.75E-12,,
,6.143007,-5.18E-12,,
,6.145007,-5.93E-12,,
,6.147007,-6.57E-12,,
,6.149007,-6.90E-12,,
,6.151007,-6.47E-12,,
,6.153007,-5.39E-12,,
,6.155007,-3.89E-12,,
,6.157007,-3.03E-12,,
,6.159007,-3.03E-12,,
,6.161007,-4.00E-12,,
,6.163007,-5.07E-12,,
,6.165007,-5.61E-12,,
,6.167007,-5.39E-12,,
,6.169007,-4.43E-12,,
,6.171007,-3.14E-12,,
,6.173007,-2.07E-12,,
,6.175007,-1.85E-12,,
,6.177007,-2.71E-12,,
,6.179007,-4.00E-12,,
,6.181007,-4.96E-12,,
,6.183007,-5.07E-12,,
,6.185007,-4.32E-12,,
,6.187007,-3.03E-12,,
,6.189007,-1.74E-12,,
,6.191007,-1.21E-12,,
,6.193007,-1.85E-12,,
,6.195007,-2.92E-12,,
,6.197007,-4.21E-12,,
,6.199007,-4.53E-12,,
,6.201007,-4.10E-12,,
,6.203007,-2.92E-12,,
,6.205007,-1.74E-12,,
,6.207007,-1.31E-12,,
,6.209007,-1.53E-12,,
,6.211007,-2.49E-12,,
,6.213007,-3.57E-12,,
,6.215007,-4.43E-12,,
,6.217007,-4.64E-12,,
,6.219007,-3.89E-12,,
,6.221007,-2.71E-12,,
,6.223007,-1.42E-12,,
,6.225007,-1.31E-12,,
,6.227007,-2.28E-12,,
,6.229007,-3.68E-12,,
,6.231007,-4.64E-12,,
,6.233007,-4.75E-12,,
,6.235007,-4.10E-12,,
,6.237007,-3.14E-12,,
,6.239007,-2.07E-12,,
,6.241007,-2.07E-12,,
,6.243007,-2.92E-12,,
,6.245007,-4.64E-12,,
,6.247007,-6.04E-12,,
,6.249007,-6.68E-12,,
,6.251007,-6.25E-12,,
,6.253007,-5.29E-12,,
,6.255007,-4.21E-12,,
,6.257007,-3.89E-12,,
,6.259007,-4.10E-12,,
,6.261007,-5.50E-12,,
,6.263007,-6.68E-12,,
,6.265007,-8.08E-12,,
,6.267007,-8.29E-12,,
,6.269007,-7.97E-12,,
,6.271007,-7.11E-12,,
,6.273007,-6.57E-12,,
,6.275007,-6.68E-12,,
,6.277007,-7.65E-12,,
,6.279007,-8.83E-12,,
,6.281007,-1.01E-11,,
,6.283007,-1.07E-11,,
,6.285007,-1.04E-11,,
,6.287007,-9.58E-12,,
,6.289007,-8.61E-12,,
,6.291007,-8.61E-12,,
,6.293007,-9.47E-12,,
,6.295007,-1.13E-11,,
,6.297007,-1.28E-11,,
,6.299007,-1.39E-11,,
,6.301007,-1.40E-11,,
,6.303007,-1.36E-11,,
,6.305007,-1.29E-11,,
,6.307007,-1.27E-11,,
,6.309007,-1.36E-11,,
,6.311007,-1.54E-11,,
,6.313007,-1.72E-11,,
,6.315007,-1.85E-11,,
,6.317007,-1.86E-11,,
,6.319007,-1.81E-11,,
,6.321007,-1.70E-11,,
,6.323007,-1.66E-11,,
,6.325007,-1.71E-11,,
,6.327007,-1.87E-11,,
,6.329007,-2.05E-11,,
,6.331007,-2.20E-11,,
,6.333007,-2.30E-11,,
,6.335007,-2.34E-11,,
,6.337007,-2.32E-11,,
,6.339007,-2.27E-11,,
,6.341007,-2.27E-11,,
,6.343007,-2.40E-11,,
,6.345007,-2.59E-11,,
,6.347007,-2.78E-11,,
,6.349007,-2.90E-11,,
,6.351007,-2.94E-11,,
,6.353007,-2.92E-11,,
,6.355007,-2.87E-11,,
,6.357007,-2.88E-11,,
,6.359007,-2.98E-11,,
,6.361007,-3.17E-11,,
,6.363007,-3.36E-11,,
,6.365007,-3.53E-11,,
,6.367007,-3.62E-11,,
,6.369007,-3.65E-11,,
,6.371007,-3.60E-11,,
,6.373007,-3.59E-11,,
,6.375007,-3.66E-11,,
,6.377007,-3.87E-11,,
,6.379007,-4.08E-11,,
,6.381007,-4.26E-11,,
,6.383007,-4.34E-11,,
,6.385007,-4.34E-11,,
,6.387007,-4.29E-11,,
,6.389007,-4.24E-11,,
,6.391007,-4.29E-11,,
,6.393007,-4.43E-11,,
,6.395007,-4.65E-11,,
,6.397007,-4.89E-11,,
,6.399007,-5.04E-11,,
,6.401007,-5.09E-11,,
,6.403007,-5.09E-11,,
,6.405007,-5.09E-11,,
,6.407007,-5.16E-11,,
,6.409007,-5.32E-11,,
,6.411007,-5.57E-11,,
,6.413007,-5.85E-11,,
,6.415007,-6.04E-11,,
,6.417007,-6.14E-11,,
,6.419007,-6.18E-11,,
,6.421007,-6.23E-11,,
,6.423007,-6.33E-11,,
,6.425007,-6.51E-11,,
,6.427007,-6.77E-11,,
,6.429007,-7.09E-11,,
,6.431007,-7.39E-11,,
,6.433007,-7.67E-11,,
,6.435007,-7.86E-11,,
,6.437007,-8.03E-11,,
,6.439007,-8.19E-11,,
,6.441007,-8.46E-11,,
,6.443007,-8.84E-11,,
,6.445007,-9.29E-11,,
,6.447007,-9.69E-11,,
,6.449007,-1.00E-10,,
,6.451007,-1.03E-10,,
,6.453007,-1.05E-10,,
,6.455007,-1.07E-10,,
,6.457007,-1.09E-10,,
,6.459007,-1.12E-10,,
,6.461007,-1.16E-10,,
,6.463007,-1.21E-10,,
,6.465007,-1.25E-10,,
,6.467007,-1.27E-10,,
,6.469007,-1.29E-10,,
,6.471007,-1.31E-10,,
,6.473007,-1.33E-10,,
,6.475007,-1.35E-10,,
,6.477007,-1.38E-10,,
,6.479007,-1.42E-10,,
,6.481007,-1.45E-10,,
,6.483007,-1.47E-10,,
,6.485007,-1.48E-10,,
,6.487007,-1.48E-10,,
,6.489007,-1.48E-10,,
,6.491007,-1.48E-10,,
,6.493007,-1.50E-10,,
,6.495007,-1.52E-10,,
,6.497007,-1.53E-10,,
,6.499007,-1.54E-10,,
,6.501007,-1.54E-10,,
,6.503007,-1.53E-10,,
,6.505007,-1.51E-10,,
,6.507007,-1.50E-10,,
,6.509007,-1.50E-10,,
,6.511007,-1.50E-10,,
,6.513007,-1.51E-10,,
,6.515007,-1.51E-10,,
,6.517007,-1.50E-10,,
,6.519007,-1.47E-10,,
,6.521007,-1.45E-10,,
,6.523007,-1.42E-10,,
,6.525007,-1.41E-10,,
,6.527007,-1.41E-10,,
,6.529007,-1.41E-10,,
,6.531007,-1.40E-10,,
,6.533007,-1.39E-10,,
,6.535007,-1.37E-10,,
,6.537007,-1.34E-10,,
,6.539007,-1.32E-10,,
,6.541007,-1.29E-10,,
,6.543007,-1.28E-10,,
,6.545007,-1.28E-10,,
,6.547007,-1.27E-10,,
,6.549007,-1.25E-10,,
,6.551007,-1.23E-10,,
,6.553007,-1.20E-10,,
,6.555007,-1.17E-10,,
,6.557007,-1.14E-10,,
,6.559007,-1.13E-10,,
,6.561007,-1.12E-10,,
,6.563007,-1.11E-10,,
,6.565007,-1.10E-10,,
,6.567007,-1.08E-10,,
,6.569007,-1.05E-10,,
,6.571007,-1.02E-10,,
,6.573007,-9.95E-11,,
,6.575007,-9.78E-11,,
,6.577007,-9.69E-11,,
,6.579007,-9.62E-11,,
,6.581007,-9.54E-11,,
,6.583007,-9.36E-11,,
,6.585007,-9.13E-11,,
,6.587007,-8.82E-11,,
,6.589007,-8.54E-11,,
,6.591007,-8.33E-11,,
,6.593007,-8.25E-11,,
,6.595007,-8.22E-11,,
,6.597007,-8.19E-11,,
,6.599007,-8.09E-11,,
,6.601007,-7.90E-11,,
,6.603007,-7.64E-11,,
,6.605007,-7.37E-11,,
,6.607007,-7.15E-11,,
,6.609007,-7.03E-11,,
,6.611007,-6.99E-11,,
,6.613007,-6.96E-11,,
,6.615007,-6.87E-11,,
,6.617007,-6.74E-11,,
,6.619007,-6.51E-11,,
,6.621007,-6.27E-11,,
,6.623007,-6.04E-11,,
,6.625007,-5.91E-11,,
,6.627007,-5.87E-11,,
,6.629007,-5.87E-11,,
,6.631007,-5.87E-11,,
,6.633007,-5.78E-11,,
,6.635007,-5.63E-11,,
,6.637007,-5.40E-11,,
,6.639007,-5.21E-11,,
,6.641007,-5.05E-11,,
,6.643007,-5.01E-11,,
,6.645007,-4.99E-11,,
,6.647007,-4.98E-11,,
,6.649007,-4.92E-11,,
,6.651007,-4.77E-11,,
,6.653007,-4.59E-11,,
,6.655007,-4.36E-11,,
,6.657007,-4.20E-11,,
,6.659007,-4.14E-11,,
,6.661007,-4.17E-11,,
,6.663007,-4.20E-11,,
,6.665007,-4.19E-11,,
,6.667007,-4.11E-11,,
,6.669007,-3.95E-11,,
,6.671007,-3.76E-11,,
,6.673007,-3.57E-11,,
,6.675007,-3.48E-11,,
,6.677007,-3.48E-11,,
,6.679007,-3.52E-11,,
,6.681007,-3.55E-11,,
,6.683007,-3.47E-11,,
,6.685007,-3.32E-11,,
,6.687007,-3.12E-11,,
,6.689007,-2.92E-11,,
,6.691007,-2.79E-11,,
,6.693007,-2.77E-11,,
,6.695007,-2.85E-11,,
,6.697007,-2.92E-11,,
,6.699007,-2.93E-11,,
,6.701007,-2.85E-11,,
,6.703007,-2.70E-11,,
,6.705007,-2.53E-11,,
,6.707007,-2.40E-11,,
,6.709007,-2.38E-11,,
,6.711007,-2.43E-11,,
,6.713007,-2.50E-11,,
,6.715007,-2.53E-11,,
,6.717007,-2.45E-11,,
,6.719007,-2.31E-11,,
,6.721007,-2.14E-11,,
,6.723007,-2.02E-11,,
,6.725007,-1.96E-11,,
,6.727007,-2.00E-11,,
,6.729007,-2.07E-11,,
,6.731007,-2.15E-11,,
,6.733007,-2.12E-11,,
,6.735007,-2.00E-11,,
,6.737007,-1.83E-11,,
,6.739007,-1.66E-11,,
,6.741007,-1.56E-11,,
,6.743007,-1.55E-11,,
,6.745007,-1.63E-11,,
,6.747007,-1.72E-11,,
,6.749007,-1.73E-11,,
,6.751007,-1.63E-11,,
,6.753007,-1.44E-11,,
,6.755007,-1.27E-11,,
,6.757007,-1.16E-11,,
,6.759007,-1.17E-11,,
,6.761007,-1.23E-11,,
,6.763007,-1.31E-11,,
,6.765007,-1.32E-11,,
,6.767007,-1.27E-11,,
,6.769007,-1.13E-11,,
,6.771007,-9.69E-12,,
,6.773007,-8.40E-12,,
,6.775007,-8.08E-12,,
,6.777007,-8.51E-12,,
,6.779007,-9.58E-12,,
,6.781007,-9.90E-12,,
,6.783007,-9.79E-12,,
,6.785007,-8.51E-12,,
,6.787007,-7.00E-12,,
,6.789007,-5.29E-12,,
,6.791007,-4.43E-12,,
,6.793007,-4.43E-12,,
,6.795007,-5.39E-12,,
,6.797007,-6.14E-12,,
,6.799007,-6.36E-12,,
,6.801007,-5.50E-12,,
,6.803007,-4.00E-12,,
,6.805007,-2.39E-12,,
,6.807007,-1.31E-12,,
,6.809007,-1.21E-12,,
,6.811007,-1.85E-12,,
,6.813007,-2.92E-12,,
,6.815007,-3.46E-12,,
,6.817007,-3.03E-12,,
,6.819007,-1.85E-12,,
,6.821007,-3.47E-13,,
,6.823007,7.26E-13,,
,6.825007,8.34E-13,,
,6.827007,4.04E-13,,
,6.829007,-6.69E-13,,
,6.831007,-1.21E-12,,
,6.833007,-1.64E-12,,
,6.835007,-7.77E-13,,
,6.837007,5.11E-13,,
,6.839007,2.01E-12,,
,6.841007,2.34E-12,,
,6.843007,1.91E-12,,
,6.845007,8.34E-13,,
,6.847007,-2.53E-14,,
,6.849007,-3.47E-13,,
,6.851007,2.97E-13,,
,6.853007,1.48E-12,,
,6.855007,2.87E-12,,
,6.857007,3.52E-12,,
,6.859007,3.41E-12,,
,6.861007,2.34E-12,,
,6.863007,1.26E-12,,
,6.865007,5.11E-13,,
,6.867007,6.19E-13,,
,6.869007,1.37E-12,,
,6.871007,2.66E-12,,
,6.873007,3.62E-12,,
,6.875007,3.52E-12,,
,6.877007,2.44E-12,,
,6.879007,9.41E-13,,
,6.881007,-3.47E-13,,
,6.883007,-5.62E-13,,
,6.885007,-1.33E-13,,
,6.887007,1.16E-12,,
,6.889007,1.80E-12,,
,6.891007,2.01E-12,,
,6.893007,1.16E-12,,
,6.895007,8.20E-14,,
,6.897007,-1.31E-12,,
,6.899007,-2.07E-12,,
,6.901007,-2.17E-12,,
,6.903007,-1.42E-12,,
,6.905007,-6.69E-13,,
,6.907007,-5.62E-13,,
,6.909007,-1.53E-12,,
,6.911007,-3.14E-12,,
,6.913007,-4.86E-12,,
,6.915007,-5.50E-12,,
,6.917007,-5.72E-12,,
,6.919007,-5.07E-12,,
,6.921007,-4.32E-12,,
,6.923007,-3.68E-12,,
,6.925007,-3.68E-12,,
,6.927007,-5.18E-12,,
,6.929007,-6.79E-12,,
,6.931007,-8.40E-12,,
,6.933007,-8.72E-12,,
,6.935007,-8.29E-12,,
,6.937007,-7.65E-12,,
,6.939007,-6.90E-12,,
,6.941007,-7.11E-12,,
,6.943007,-7.86E-12,,
,6.945007,-9.26E-12,,
,6.947007,-1.03E-11,,
,6.949007,-1.10E-11,,
,6.951007,-1.09E-11,,
,6.953007,-9.79E-12,,
,6.955007,-8.61E-12,,
,6.957007,-7.86E-12,,
,6.959007,-8.51E-12,,
,6.961007,-9.58E-12,,
,6.963007,-1.12E-11,,
,6.965007,-1.20E-11,,
,6.967007,-1.20E-11,,
,6.969007,-1.13E-11,,
,6.971007,-1.02E-11,,
,6.973007,-9.69E-12,,
,6.975007,-9.79E-12,,
,6.977007,-1.12E-11,,
,6.979007,-1.25E-11,,
,6.981007,-1.34E-11,,
,6.983007,-1.32E-11,,
,6.985007,-1.25E-11,,
,6.987007,-1.13E-11,,
,6.989007,-1.03E-11,,
,6.991007,-1.03E-11,,
,6.993007,-1.11E-11,,
,6.995007,-1.26E-11,,
,6.997007,-1.37E-11,,
,6.999007,-1.42E-11,,
,7.001007,-1.37E-11,,
,7.003007,-1.25E-11,,
,7.005007,-1.10E-11,,
,7.007007,-1.03E-11,,
,7.009007,-1.08E-11,,
,7.011007,-1.20E-11,,
,7.013007,-1.33E-11,,
,7.015007,-1.43E-11,,
,7.017007,-1.43E-11,,
,7.019007,-1.32E-11,,
,7.021007,-1.16E-11,,
,7.023007,-1.07E-11,,
,7.025007,-1.04E-11,,
,7.027007,-1.12E-11,,
,7.029007,-1.22E-11,,
,7.031007,-1.33E-11,,
,7.033007,-1.38E-11,,
,7.035007,-1.37E-11,,
,7.037007,-1.29E-11,,
,7.039007,-1.23E-11,,
,7.041007,-1.22E-11,,
,7.043007,-1.29E-11,,
,7.045007,-1.43E-11,,
,7.047007,-1.56E-11,,
,7.049007,-1.58E-11,,
,7.051007,-1.53E-11,,
,7.053007,-1.40E-11,,
,7.055007,-1.30E-11,,
,7.057007,-1.26E-11,,
,7.059007,-1.31E-11,,
,7.061007,-1.45E-11,,
,7.063007,-1.56E-11,,
,7.065007,-1.65E-11,,
,7.067007,-1.63E-11,,
,7.069007,-1.56E-11,,
,7.071007,-1.43E-11,,
,7.073007,-1.31E-11,,
,7.075007,-1.31E-11,,
,7.077007,-1.40E-11,,
,7.079007,-1.55E-11,,
,7.081007,-1.62E-11,,
,7.083007,-1.61E-11,,
,7.085007,-1.49E-11,,
,7.087007,-1.36E-11,,
,7.089007,-1.24E-11,,
,7.091007,-1.18E-11,,
,7.093007,-1.25E-11,,
,7.095007,-1.34E-11,,
,7.097007,-1.47E-11,,
,7.099007,-1.51E-11,,
,7.101007,-1.47E-11,,
,7.103007,-1.34E-11,,
,7.105007,-1.23E-11,,
,7.107007,-1.15E-11,,
,7.109007,-1.18E-11,,
,7.111007,-1.28E-11,,
,7.113007,-1.41E-11,,
,7.115007,-1.46E-11,,
,7.117007,-1.44E-11,,
,7.119007,-1.32E-11,,
,7.121007,-1.20E-11,,
,7.123007,-1.12E-11,,
,7.125007,-1.12E-11,,
,7.127007,-1.20E-11,,
,7.129007,-1.31E-11,,
,7.131007,-1.40E-11,,
,7.133007,-1.40E-11,,
,7.135007,-1.33E-11,,
,7.137007,-1.22E-11,,
,7.139007,-1.12E-11,,
,7.141007,-1.09E-11,,
,7.143007,-1.15E-11,,
,7.145007,-1.26E-11,,
,7.147007,-1.34E-11,,
,7.149007,-1.37E-11,,
,7.151007,-1.32E-11,,
,7.153007,-1.23E-11,,
,7.155007,-1.13E-11,,
,7.157007,-1.08E-11,,
,7.159007,-1.11E-11,,
,7.161007,-1.22E-11,,
,7.163007,-1.34E-11,,
,7.165007,-1.41E-11,,
,7.167007,-1.40E-11,,
,7.169007,-1.29E-11,,
,7.171007,-1.16E-11,,
,7.173007,-1.07E-11,,
,7.175007,-1.09E-11,,
,7.177007,-1.20E-11,,
,7.179007,-1.32E-11,,
,7.181007,-1.41E-11,,
,7.183007,-1.42E-11,,
,7.185007,-1.34E-11,,
,7.187007,-1.22E-11,,
,7.189007,-1.08E-11,,
,7.191007,-1.04E-11,,
,7.193007,-1.11E-11,,
,7.195007,-1.26E-11,,
,7.197007,-1.38E-11,,
,7.199007,-1.42E-11,,
,7.201007,-1.36E-11,,
,7.203007,-1.24E-11,,
,7.205007,-1.09E-11,,
,7.207007,-1.01E-11,,
,7.209007,-1.04E-11,,
,7.211007,-1.15E-11,,
,7.213007,-1.28E-11,,
,7.215007,-1.36E-11,,
,7.217007,-1.33E-11,,
,7.219007,-1.22E-11,,
,7.221007,-1.05E-11,,
,7.223007,-9.47E-12,,
,7.225007,-9.15E-12,,
,7.227007,-9.58E-12,,
,7.229007,-1.04E-11,,
,7.231007,-1.11E-11,,
,7.233007,-1.12E-11,,
,7.235007,-1.07E-11,,
,7.237007,-9.47E-12,,
,7.239007,-8.51E-12,,
,7.241007,-8.08E-12,,
,7.243007,-8.72E-12,,
,7.245007,-9.79E-12,,
,7.247007,-1.07E-11,,
,7.249007,-1.08E-11,,
,7.251007,-1.00E-11,,
,7.253007,-8.94E-12,,
,7.255007,-7.75E-12,,
,7.257007,-7.22E-12,,
,7.259007,-7.33E-12,,
,7.261007,-8.29E-12,,
,7.263007,-9.15E-12,,
,7.265007,-9.79E-12,,
,7.267007,-9.58E-12,,
,7.269007,-8.72E-12,,
,7.271007,-7.33E-12,,
,7.273007,-6.57E-12,,
,7.275007,-6.36E-12,,
,7.277007,-7.22E-12,,
,7.279007,-8.08E-12,,
,7.281007,-8.94E-12,,
,7.283007,-8.72E-12,,
,7.285007,-7.86E-12,,
,7.287007,-6.47E-12,,
,7.289007,-5.39E-12,,
,7.291007,-4.86E-12,,
,7.293007,-5.72E-12,,
,7.295007,-6.79E-12,,
,7.297007,-7.97E-12,,
,7.299007,-7.86E-12,,
,7.301007,-7.11E-12,,
,7.303007,-5.50E-12,,
,7.305007,-3.89E-12,,
,7.307007,-2.92E-12,,
,7.309007,-3.14E-12,,
,7.311007,-4.43E-12,,
,7.313007,-5.72E-12,,
,7.315007,-6.36E-12,,
,7.317007,-6.04E-12,,
,7.319007,-4.75E-12,,
,7.321007,-3.25E-12,,
,7.323007,-1.85E-12,,
,7.325007,-1.64E-12,,
,7.327007,-2.17E-12,,
,7.329007,-3.35E-12,,
,7.331007,-4.00E-12,,
,7.333007,-4.10E-12,,
,7.335007,-3.25E-12,,
,7.337007,-2.17E-12,,
,7.339007,-8.84E-13,,
,7.341007,-3.47E-13,,
,7.343007,-5.62E-13,,
,7.345007,-1.42E-12,,
,7.347007,-2.17E-12,,
,7.349007,-2.28E-12,,
,7.351007,-1.85E-12,,
,7.353007,-7.77E-13,,
,7.355007,6.19E-13,,
,7.357007,1.80E-12,,
,7.359007,1.80E-12,,
,7.361007,9.41E-13,,
,7.363007,-1.33E-13,,
,7.365007,-6.69E-13,,
,7.367007,-5.62E-13,,
,7.369007,4.04E-13,,
,7.371007,2.12E-12,,
,7.373007,3.41E-12,,
,7.375007,3.73E-12,,
,7.377007,2.77E-12,,
,7.379007,1.80E-12,,
,7.381007,1.05E-12,,
,7.383007,1.26E-12,,
,7.385007,2.12E-12,,
,7.387007,3.73E-12,,
,7.389007,5.02E-12,,
,7.391007,5.56E-12,,
,7.393007,4.91E-12,,
,7.395007,3.73E-12,,
,7.397007,2.66E-12,,
,7.399007,2.44E-12,,
,7.401007,3.20E-12,,
,7.403007,4.27E-12,,
,7.405007,5.56E-12,,
,7.407007,6.20E-12,,
,7.409007,6.09E-12,,
,7.411007,5.02E-12,,
,7.413007,3.95E-12,,
,7.415007,3.52E-12,,
,7.417007,3.84E-12,,
,7.419007,4.70E-12,,
,7.421007,5.88E-12,,
,7.423007,6.85E-12,,
,7.425007,6.95E-12,,
,7.427007,6.09E-12,,
,7.429007,4.91E-12,,
,7.431007,4.27E-12,,
,7.433007,4.27E-12,,
,7.435007,5.24E-12,,
,7.437007,6.95E-12,,
,7.439007,8.46E-12,,
,7.441007,8.78E-12,,
,7.443007,8.03E-12,,
,7.445007,6.74E-12,,
,7.447007,5.88E-12,,
,7.449007,5.56E-12,,
,7.451007,6.31E-12,,
,7.453007,7.27E-12,,
,7.455007,8.67E-12,,
,7.457007,9.42E-12,,
,7.459007,9.31E-12,,
,7.461007,8.35E-12,,
,7.463007,6.95E-12,,
,7.465007,6.52E-12,,
,7.467007,6.52E-12,,
,7.469007,7.60E-12,,
,7.471007,8.99E-12,,
,7.473007,1.02E-11,,
,7.475007,1.06E-11,,
,7.477007,9.64E-12,,
,7.479007,8.67E-12,,
,7.481007,7.92E-12,,
,7.483007,8.13E-12,,
,7.485007,8.99E-12,,
,7.487007,1.03E-11,,
,7.489007,1.15E-11,,
,7.491007,1.19E-11,,
,7.493007,1.17E-11,,
,7.495007,1.07E-11,,
,7.497007,1.01E-11,,
,7.499007,9.96E-12,,
,7.501007,1.05E-11,,
,7.503007,1.15E-11,,
,7.505007,1.25E-11,,
,7.507007,1.34E-11,,
,7.509007,1.33E-11,,
,7.511007,1.23E-11,,
,7.513007,1.12E-11,,
,7.515007,1.08E-11,,
,7.517007,1.14E-11,,
,7.519007,1.26E-11,,
,7.521007,1.44E-11,,
,7.523007,1.53E-11,,
,7.525007,1.54E-11,,
,7.527007,1.44E-11,,
,7.529007,1.32E-11,,
,7.531007,1.25E-11,,
,7.533007,1.26E-11,,
,7.535007,1.36E-11,,
,7.537007,1.50E-11,,
,7.539007,1.64E-11,,
,7.541007,1.72E-11,,
,7.543007,1.68E-11,,
,7.545007,1.58E-11,,
,7.547007,1.46E-11,,
,7.549007,1.41E-11,,
,7.551007,1.46E-11,,
,7.553007,1.59E-11,,
,7.555007,1.74E-11,,
,7.557007,1.81E-11,,
,7.559007,1.78E-11,,
,7.561007,1.65E-11,,
,7.563007,1.55E-11,,
,7.565007,1.50E-11,,
,7.567007,1.54E-11,,
,7.569007,1.65E-11,,
,7.571007,1.80E-11,,
,7.573007,1.91E-11,,
,7.575007,1.91E-11,,
,7.577007,1.81E-11,,
,7.579007,1.69E-11,,
,7.581007,1.62E-11,,
,7.583007,1.63E-11,,
,7.585007,1.72E-11,,
,7.587007,1.87E-11,,
,7.589007,1.99E-11,,
,7.591007,2.05E-11,,
,7.593007,1.99E-11,,
,7.595007,1.88E-11,,
,7.597007,1.79E-11,,
,7.599007,1.76E-11,,
,7.601007,1.84E-11,,
,7.603007,1.96E-11,,
,7.605007,2.12E-11,,
,7.607007,2.21E-11,,
,7.609007,2.21E-11,,
,7.611007,2.09E-11,,
,7.613007,1.96E-11,,
,7.615007,1.89E-11,,
,7.617007,1.93E-11,,
,7.619007,2.03E-11,,
,7.621007,2.16E-11,,
,7.623007,2.25E-11,,
,7.625007,2.26E-11,,
,7.627007,2.18E-11,,
,7.629007,2.06E-11,,
,7.631007,1.98E-11,,
,7.633007,1.99E-11,,
,7.635007,2.09E-11,,
,7.637007,2.23E-11,,
,7.639007,2.36E-11,,
,7.641007,2.36E-11,,
,7.643007,2.27E-11,,
,7.645007,2.13E-11,,
,7.647007,2.04E-11,,
,7.649007,1.99E-11,,
,7.651007,2.06E-11,,
,7.653007,2.18E-11,,
,7.655007,2.35E-11,,
,7.657007,2.45E-11,,
,7.659007,2.43E-11,,
,7.661007,2.34E-11,,
,7.663007,2.19E-11,,
,7.665007,2.13E-11,,
,7.667007,2.14E-11,,
,7.669007,2.28E-11,,
,7.671007,2.41E-11,,
,7.673007,2.53E-11,,
,7.675007,2.51E-11,,
,7.677007,2.41E-11,,
,7.679007,2.26E-11,,
,7.681007,2.18E-11,,
,7.683007,2.20E-11,,
,7.685007,2.28E-11,,
,7.687007,2.45E-11,,
,7.689007,2.53E-11,,
,7.691007,2.56E-11,,
,7.693007,2.48E-11,,
,7.695007,2.37E-11,,
,7.697007,2.27E-11,,
,7.699007,2.23E-11,,
,7.701007,2.28E-11,,
,7.703007,2.40E-11,,
,7.705007,2.50E-11,,
,7.707007,2.54E-11,,
,7.709007,2.48E-11,,
,7.711007,2.36E-11,,
,7.713007,2.23E-11,,
,7.715007,2.16E-11,,
,7.717007,2.18E-11,,
,7.719007,2.27E-11,,
,7.721007,2.40E-11,,
,7.723007,2.49E-11,,
,7.725007,2.47E-11,,
,7.727007,2.34E-11,,
,7.729007,2.18E-11,,
,7.731007,2.07E-11,,
,7.733007,2.05E-11,,
,7.735007,2.11E-11,,
,7.737007,2.20E-11,,
,7.739007,2.29E-11,,
,7.741007,2.31E-11,,
,7.743007,2.20E-11,,
,7.745007,2.04E-11,,
,7.747007,1.89E-11,,
,7.749007,1.84E-11,,
,7.751007,1.87E-11,,
,7.753007,1.96E-11,,
,7.755007,2.06E-11,,
,7.757007,2.08E-11,,
,7.759007,2.02E-11,,
,7.761007,1.84E-11,,
,7.763007,1.70E-11,,
,7.765007,1.60E-11,,
,7.767007,1.61E-11,,
,7.769007,1.68E-11,,
,7.771007,1.78E-11,,
,7.773007,1.83E-11,,
,7.775007,1.77E-11,,
,7.777007,1.63E-11,,
,7.779007,1.46E-11,,
,7.781007,1.33E-11,,
,7.783007,1.30E-11,,
,7.785007,1.36E-11,,
,7.787007,1.46E-11,,
,7.789007,1.54E-11,,
,7.791007,1.54E-11,,
,7.793007,1.46E-11,,
,7.795007,1.31E-11,,
,7.797007,1.16E-11,,
,7.799007,1.10E-11,,
,7.801007,1.12E-11,,
,7.803007,1.23E-11,,
,7.805007,1.32E-11,,
,7.807007,1.36E-11,,
,7.809007,1.28E-11,,
,7.811007,1.14E-11,,
,7.813007,9.64E-12,,
,7.815007,8.78E-12,,
,7.817007,8.89E-12,,
,7.819007,9.74E-12,,
,7.821007,1.08E-11,,
,7.823007,1.12E-11,,
,7.825007,1.10E-11,,
,7.827007,9.74E-12,,
,7.829007,8.46E-12,,
,7.831007,7.27E-12,,
,7.833007,7.06E-12,,
,7.835007,7.27E-12,,
,7.837007,8.35E-12,,
,7.839007,9.21E-12,,
,7.841007,9.42E-12,,
,7.843007,8.35E-12,,
,7.845007,6.74E-12,,
,7.847007,5.45E-12,,
,7.849007,4.91E-12,,
,7.851007,5.45E-12,,
,7.853007,6.52E-12,,
,7.855007,7.81E-12,,
,7.857007,8.13E-12,,
,7.859007,7.38E-12,,
,7.861007,5.99E-12,,
,7.863007,4.81E-12,,
,7.865007,4.16E-12,,
,7.867007,4.38E-12,,
,7.869007,4.91E-12,,
,7.871007,5.88E-12,,
,7.873007,6.31E-12,,
,7.875007,6.20E-12,,
,7.877007,5.13E-12,,
,7.879007,3.62E-12,,
,7.881007,2.66E-12,,
,7.883007,2.55E-12,,
,7.885007,3.52E-12,,
,7.887007,4.81E-12,,
,7.889007,5.56E-12,,
,7.891007,5.24E-12,,
,7.893007,4.05E-12,,
,7.895007,2.77E-12,,
,7.897007,1.69E-12,,
,7.899007,1.26E-12,,
,7.901007,1.69E-12,,
,7.903007,2.98E-12,,
,7.905007,4.16E-12,,
,7.907007,4.70E-12,,
,7.909007,4.05E-12,,
,7.911007,2.55E-12,,
,7.913007,9.41E-13,,
,7.915007,-2.53E-14,,
,7.917007,8.20E-14,,
,7.919007,8.34E-13,,
,7.921007,2.01E-12,,
,7.923007,2.87E-12,,
,7.925007,3.09E-12,,
,7.927007,2.34E-12,,
,7.929007,1.26E-12,,
,7.931007,6.19E-13,,
,7.933007,6.19E-13,,
,7.935007,1.37E-12,,
,7.937007,2.23E-12,,
,7.939007,2.98E-12,,
,7.941007,3.09E-12,,
,7.943007,2.23E-12,,
,7.945007,7.26E-13,,
,7.947007,-4.55E-13,,
,7.949007,-6.69E-13,,
,7.951007,8.20E-14,,
,7.953007,1.26E-12,,
,7.955007,2.34E-12,,
,7.957007,2.66E-12,,
,7.959007,1.91E-12,,
,7.961007,5.11E-13,,
,7.963007,-7.77E-13,,
,7.965007,-1.42E-12,,
,7.967007,-1.21E-12,,
,7.969007,-1.33E-13,,
,7.971007,1.05E-12,,
,7.973007,1.69E-12,,
,7.975007,1.05E-12,,
,7.977007,-2.53E-14,,
,7.979007,-1.31E-12,,
,7.981007,-2.07E-12,,
,7.983007,-2.17E-12,,
,7.985007,-1.42E-12,,
,7.987007,-1.33E-13,,
,7.989007,9.41E-13,,
,7.991007,1.37E-12,,
,7.993007,6.19E-13,,
,7.995007,-5.62E-13,,
,7.997007,-1.85E-12,,
,7.999007,-2.07E-12,,
,8.001007,-1.64E-12,,
,8.003007,-2.40E-13,,
,8.005007,1.05E-12,,
,8.007007,1.59E-12,,
,8.009007,8.34E-13,,
,8.011007,-4.55E-13,,
,8.013007,-1.53E-12,,
,8.015007,-2.07E-12,,
,8.017007,-1.74E-12,,
,8.019007,-8.84E-13,,
,8.021007,5.11E-13,,
,8.023007,1.37E-12,,
,8.025007,1.26E-12,,
,8.027007,1.89E-13,,
,8.029007,-1.31E-12,,
,8.031007,-2.28E-12,,
,8.033007,-2.17E-12,,
,8.035007,-1.10E-12,,
,8.037007,5.11E-13,,
,8.039007,1.59E-12,,
,8.041007,1.69E-12,,
,8.043007,9.41E-13,,
,8.045007,-3.47E-13,,
,8.047007,-1.31E-12,,
,8.049007,-1.74E-12,,
,8.051007,-1.10E-12,,
,8.053007,2.97E-13,,
,8.055007,2.01E-12,,
,8.057007,2.77E-12,,
,8.059007,2.34E-12,,
,8.061007,1.16E-12,,
,8.063007,8.20E-14,,
,8.065007,8.20E-14,,
,8.067007,5.11E-13,,
,8.069007,2.01E-12,,
,8.071007,3.20E-12,,
,8.073007,4.16E-12,,
,8.075007,3.95E-12,,
,8.077007,3.09E-12,,
,8.079007,2.01E-12,,
,8.081007,1.48E-12,,
,8.083007,1.69E-12,,
,8.085007,2.77E-12,,
,8.087007,4.16E-12,,
,8.089007,5.34E-12,,
,8.091007,5.66E-12,,
,8.093007,5.02E-12,,
,8.095007,3.73E-12,,
,8.097007,2.77E-12,,
,8.099007,2.66E-12,,
,8.101007,3.62E-12,,
,8.103007,5.02E-12,,
,8.105007,6.20E-12,,
,8.107007,6.74E-12,,
,8.109007,6.42E-12,,
,8.111007,5.24E-12,,
,8.113007,3.95E-12,,
,8.115007,3.20E-12,,
,8.117007,3.84E-12,,
,8.119007,5.24E-12,,
,8.121007,6.85E-12,,
,8.123007,8.03E-12,,
,8.125007,8.03E-12,,
,8.127007,7.27E-12,,
,8.129007,5.66E-12,,
,8.131007,4.91E-12,,
,8.133007,4.59E-12,,
,8.135007,5.45E-12,,
,8.137007,6.42E-12,,
,8.139007,7.60E-12,,
,8.141007,7.92E-12,,
,8.143007,7.38E-12,,
,8.145007,6.09E-12,,
,8.147007,5.02E-12,,
,8.149007,4.70E-12,,
,8.151007,5.45E-12,,
,8.153007,6.74E-12,,
,8.155007,8.03E-12,,
,8.157007,8.67E-12,,
,8.159007,8.35E-12,,
,8.161007,7.27E-12,,
,8.163007,5.99E-12,,
,8.165007,5.45E-12,,
,8.167007,5.88E-12,,
,8.169007,6.85E-12,,
,8.171007,8.03E-12,,
,8.173007,8.78E-12,,
,8.175007,8.56E-12,,
,8.177007,7.38E-12,,
,8.179007,5.66E-12,,
,8.181007,4.81E-12,,
,8.183007,4.81E-12,,
,8.185007,5.66E-12,,
,8.187007,6.74E-12,,
,8.189007,7.49E-12,,
,8.191007,7.70E-12,,
,8.193007,6.85E-12,,
,8.195007,5.45E-12,,
,8.197007,4.27E-12,,
,8.199007,3.95E-12,,
,8.201007,4.59E-12,,
,8.203007,5.66E-12,,
,8.205007,6.52E-12,,
,8.207007,6.95E-12,,
,8.209007,6.31E-12,,
,8.211007,5.24E-12,,
,8.213007,3.84E-12,,
,8.215007,3.30E-12,,
,8.217007,3.41E-12,,
,8.219007,4.38E-12,,
,8.221007,5.45E-12,,
,8.223007,6.09E-12,,
,8.225007,5.99E-12,,
,8.227007,4.81E-12,,
,8.229007,3.52E-12,,
,8.231007,2.34E-12,,
,8.233007,2.12E-12,,
,8.235007,2.66E-12,,
,8.237007,4.05E-12,,
,8.239007,5.02E-12,,
,8.241007,5.34E-12,,
,8.243007,4.16E-12,,
,8.245007,2.66E-12,,
,8.247007,1.26E-12,,
,8.249007,7.26E-13,,
,8.251007,9.41E-13,,
,8.253007,1.91E-12,,
,8.255007,2.98E-12,,
,8.257007,3.73E-12,,
,8.259007,3.09E-12,,
,8.261007,1.69E-12,,
,8.263007,1.89E-13,,
,8.265007,-3.47E-13,,
,8.267007,-1.33E-13,,
,8.269007,7.26E-13,,
,8.271007,1.80E-12,,
,8.273007,2.55E-12,,
,8.275007,2.34E-12,,
,8.277007,8.34E-13,,
,8.279007,-6.69E-13,,
,8.281007,-1.53E-12,,
,8.283007,-1.21E-12,,
,8.285007,-3.47E-13,,
,8.287007,9.41E-13,,
,8.289007,1.91E-12,,
,8.291007,2.23E-12,,
,8.293007,1.48E-12,,
,8.295007,1.89E-13,,
,8.297007,-7.77E-13,,
,8.299007,-9.92E-13,,
,8.301007,-2.40E-13,,
,8.303007,1.05E-12,,
,8.305007,2.12E-12,,
,8.307007,2.77E-12,,
,8.309007,2.44E-12,,
,8.311007,1.37E-12,,
,8.313007,-2.53E-14,,
,8.315007,-6.69E-13,,
,8.317007,-4.55E-13,,
,8.319007,7.26E-13,,
,8.321007,1.80E-12,,
,8.323007,2.98E-12,,
,8.325007,3.09E-12,,
,8.327007,2.34E-12,,
,8.329007,1.16E-12,,
,8.331007,4.04E-13,,
,8.333007,4.04E-13,,
,8.335007,1.05E-12,,
,8.337007,1.91E-12,,
,8.339007,2.66E-12,,
,8.341007,2.77E-12,,
,8.343007,2.12E-12,,
,8.345007,7.26E-13,,
,8.347007,-2.40E-13,,
,8.349007,-7.77E-13,,
,8.351007,8.20E-14,,
,8.353007,1.16E-12,,
,8.355007,2.77E-12,,
,8.357007,3.41E-12,,
,8.359007,3.09E-12,,
,8.361007,1.69E-12,,
,8.363007,2.97E-13,,
,8.365007,-2.40E-13,,
,8.367007,1.89E-13,,
,8.369007,1.48E-12,,
,8.371007,2.77E-12,,
,8.373007,3.95E-12,,
,8.375007,3.73E-12,,
,8.377007,2.66E-12,,
,8.379007,1.26E-12,,
,8.381007,6.19E-13,,
,8.383007,5.11E-13,,
,8.385007,1.16E-12,,
,8.387007,2.44E-12,,
,8.389007,3.73E-12,,
,8.391007,4.16E-12,,
,8.393007,3.30E-12,,
,8.395007,2.01E-12,,
,8.397007,1.16E-12,,
,8.399007,1.05E-12,,
,8.401007,1.80E-12,,
,8.403007,3.09E-12,,
,8.405007,4.59E-12,,
,8.407007,5.45E-12,,
,8.409007,5.02E-12,,
,8.411007,3.84E-12,,
,8.413007,2.55E-12,,
,8.415007,1.91E-12,,
,8.417007,2.12E-12,,
,8.419007,3.20E-12,,
,8.421007,4.70E-12,,
,8.423007,5.66E-12,,
,8.425007,5.56E-12,,
,8.427007,4.59E-12,,
,8.429007,3.41E-12,,
,8.431007,2.66E-12,,
,8.433007,2.44E-12,,
,8.435007,3.09E-12,,
,8.437007,4.48E-12,,
,8.439007,5.56E-12,,
,8.441007,5.66E-12,,
,8.443007,4.59E-12,,
,8.445007,3.30E-12,,
,8.447007,2.44E-12,,
,8.449007,2.44E-12,,
,8.451007,3.41E-12,,
,8.453007,4.70E-12,,
,8.455007,5.88E-12,,
,8.457007,5.99E-12,,
,8.459007,5.24E-12,,
,8.461007,4.05E-12,,
,8.463007,2.98E-12,,
,8.465007,2.87E-12,,
,8.467007,3.09E-12,,
,8.469007,4.38E-12,,
,8.471007,5.56E-12,,
,8.473007,6.52E-12,,
,8.475007,6.20E-12,,
,8.477007,5.02E-12,,
,8.479007,3.41E-12,,
,8.481007,2.34E-12,,
,8.483007,2.34E-12,,
,8.485007,3.30E-12,,
,8.487007,4.59E-12,,
,8.489007,5.45E-12,,
,8.491007,5.34E-12,,
,8.493007,4.27E-12,,
,8.495007,2.98E-12,,
,8.497007,1.91E-12,,
,8.499007,1.59E-12,,
,8.501007,1.80E-12,,
,8.503007,2.77E-12,,
,8.505007,3.95E-12,,
,8.507007,4.38E-12,,
,8.509007,3.84E-12,,
,8.511007,2.44E-12,,
,8.513007,1.05E-12,,
,8.515007,1.89E-13,,
,8.517007,8.20E-14,,
,8.519007,1.05E-12,,
,8.521007,2.34E-12,,
,8.523007,3.09E-12,,
,8.525007,2.55E-12,,
,8.527007,1.05E-12,,
,8.529007,-4.55E-13,,
,8.531007,-1.42E-12,,
,8.533007,-1.53E-12,,
,8.535007,-6.69E-13,,
,8.537007,6.19E-13,,
,8.539007,1.80E-12,,
,8.541007,1.91E-12,,
,8.543007,9.41E-13,,
,8.545007,-3.47E-13,,
,8.547007,-1.31E-12,,
,8.549007,-1.42E-12,,
,8.551007,-9.92E-13,,
,8.553007,-2.40E-13,,
,8.555007,5.11E-13,,
,8.557007,7.26E-13,,
,8.559007,-2.53E-14,,
,8.561007,-1.42E-12,,
,8.563007,-2.82E-12,,
,8.565007,-3.35E-12,,
,8.567007,-3.14E-12,,
,8.569007,-2.28E-12,,
,8.571007,-1.10E-12,,
,8.573007,-2.40E-13,,
,8.575007,-3.47E-13,,
,8.577007,-1.74E-12,,
,8.579007,-3.25E-12,,
,8.581007,-4.21E-12,,
,8.583007,-4.10E-12,,
,8.585007,-3.35E-12,,
,8.587007,-1.96E-12,,
,8.589007,-7.77E-13,,
,8.591007,-4.55E-13,,
,8.593007,-1.42E-12,,
,8.595007,-2.82E-12,,
,8.597007,-4.00E-12,,
,8.599007,-4.21E-12,,
,8.601007,-3.68E-12,,
,8.603007,-2.28E-12,,
,8.605007,-1.10E-12,,
,8.607007,-5.62E-13,,
,8.609007,-1.21E-12,,
,8.611007,-2.60E-12,,
,8.613007,-4.00E-12,,
,8.615007,-4.75E-12,,
,8.617007,-4.53E-12,,
,8.619007,-3.68E-12,,
,8.621007,-2.39E-12,,
,8.623007,-1.74E-12,,
,8.625007,-1.96E-12,,
,8.627007,-3.35E-12,,
,8.629007,-4.53E-12,,
,8.631007,-5.18E-12,,
,8.633007,-5.07E-12,,
,8.635007,-4.43E-12,,
,8.637007,-3.46E-12,,
,8.639007,-2.39E-12,,
,8.641007,-2.17E-12,,
,8.643007,-2.92E-12,,
,8.645007,-4.32E-12,,
,8.647007,-5.39E-12,,
,8.649007,-5.82E-12,,
,8.651007,-5.39E-12,,
,8.653007,-4.21E-12,,
,8.655007,-2.92E-12,,
,8.657007,-2.39E-12,,
,8.659007,-2.92E-12,,
,8.661007,-4.00E-12,,
,8.663007,-4.86E-12,,
,8.665007,-5.18E-12,,
,8.667007,-4.75E-12,,
,8.669007,-3.68E-12,,
,8.671007,-2.39E-12,,
,8.673007,-1.53E-12,,
,8.675007,-1.96E-12,,
,8.677007,-3.14E-12,,
,8.679007,-4.53E-12,,
,8.681007,-5.39E-12,,
,8.683007,-5.07E-12,,
,8.685007,-4.10E-12,,
,8.687007,-2.49E-12,,
,8.689007,-1.64E-12,,
,8.691007,-1.21E-12,,
,8.693007,-1.96E-12,,
,8.695007,-3.25E-12,,
,8.697007,-4.32E-12,,
,8.699007,-4.43E-12,,
,8.701007,-3.68E-12,,
,8.703007,-2.60E-12,,
,8.705007,-1.64E-12,,
,8.707007,-9.92E-13,,
,8.709007,-1.42E-12,,
,8.711007,-2.39E-12,,
,8.713007,-3.35E-12,,
,8.715007,-3.89E-12,,
,8.717007,-3.78E-12,,
,8.719007,-3.14E-12,,
,8.721007,-1.85E-12,,
,8.723007,-9.92E-13,,
,8.725007,-1.10E-12,,
,8.727007,-2.07E-12,,
,8.729007,-3.14E-12,,
,8.731007,-3.68E-12,,
,8.733007,-3.35E-12,,
,8.735007,-2.49E-12,,
,8.737007,-1.31E-12,,
,8.739007,-5.62E-13,,
,8.741007,-3.47E-13,,
,8.743007,-1.31E-12,,
,8.745007,-2.49E-12,,
,8.747007,-3.78E-12,,
,8.749007,-4.00E-12,,
,8.751007,-3.46E-12,,
,8.753007,-2.17E-12,,
,8.755007,-7.77E-13,,
,8.757007,8.20E-14,,
,8.759007,-1.33E-13,,
,8.761007,-1.31E-12,,
,8.763007,-2.71E-12,,
,8.765007,-3.25E-12,,
,8.767007,-2.92E-12,,
,8.769007,-1.74E-12,,
,8.771007,-4.55E-13,,
,8.773007,4.04E-13,,
,8.775007,8.20E-14,,
,8.777007,-1.10E-12,,
,8.779007,-2.39E-12,,
,8.781007,-3.25E-12,,
,8.783007,-3.14E-12,,
,8.785007,-2.28E-12,,
,8.787007,-4.55E-13,,
,8.789007,7.26E-13,,
,8.791007,1.05E-12,,
,8.793007,-2.53E-14,,
,8.795007,-1.42E-12,,
,8.797007,-2.17E-12,,
,8.799007,-2.39E-12,,
,8.801007,-1.31E-12,,
,8.803007,-3.47E-13,,
,8.805007,1.05E-12,,
,8.807007,1.26E-12,,
,8.809007,6.19E-13,,
,8.811007,-7.77E-13,,
,8.813007,-2.07E-12,,
,8.815007,-2.60E-12,,
,8.817007,-2.17E-12,,
,8.819007,-8.84E-13,,
,8.821007,6.19E-13,,
,8.823007,1.37E-12,,
,8.825007,9.41E-13,,
,8.827007,-2.40E-13,,
,8.829007,-1.53E-12,,
,8.831007,-2.28E-12,,
,8.833007,-2.17E-12,,
,8.835007,-1.64E-12,,
,8.837007,-3.47E-13,,
,8.839007,6.19E-13,,
,8.841007,1.05E-12,,
,8.843007,2.97E-13,,
,8.845007,-8.84E-13,,
,8.847007,-1.85E-12,,
,8.849007,-1.96E-12,,
,8.851007,-1.53E-12,,
,8.853007,-3.47E-13,,
,8.855007,9.41E-13,,
,8.857007,1.59E-12,,
,8.859007,1.16E-12,,
,8.861007,-2.40E-13,,
,8.863007,-1.42E-12,,
,8.865007,-1.85E-12,,
,8.867007,-1.53E-12,,
,8.869007,-5.62E-13,,
,8.871007,7.26E-13,,
,8.873007,1.48E-12,,
,8.875007,1.48E-12,,
,8.877007,1.89E-13,,
,8.879007,-1.21E-12,,
,8.881007,-2.28E-12,,
,8.883007,-2.39E-12,,
,8.885007,-1.53E-12,,
,8.887007,-1.33E-13,,
,8.889007,1.16E-12,,
,8.891007,1.48E-12,,
,8.893007,6.19E-13,,
,8.895007,-6.69E-13,,
,8.897007,-1.64E-12,,
,8.899007,-1.85E-12,,
,8.901007,-1.21E-12,,
,8.903007,-1.33E-13,,
,8.905007,9.41E-13,,
,8.907007,1.37E-12,,
,8.909007,8.34E-13,,
,8.911007,-2.40E-13,,
,8.913007,-1.42E-12,,
,8.915007,-2.07E-12,,
,8.917007,-1.74E-12,,
,8.919007,-7.77E-13,,
,8.921007,7.26E-13,,
,8.923007,1.80E-12,,
,8.925007,1.80E-12,,
,8.927007,8.34E-13,,
,8.929007,-7.77E-13,,
,8.931007,-1.85E-12,,
,8.933007,-1.96E-12,,
,8.935007,-1.21E-12,,
,8.937007,8.20E-14,,
,8.939007,1.05E-12,,
,8.941007,1.26E-12,,
,8.943007,4.04E-13,,
,8.945007,-7.77E-13,,
,8.947007,-1.74E-12,,
,8.949007,-2.07E-12,,
,8.951007,-1.74E-12,,
,8.953007,-7.77E-13,,
,8.955007,2.97E-13,,
,8.957007,7.26E-13,,
,8.959007,8.20E-14,,
,8.961007,-9.92E-13,,
,8.963007,-2.07E-12,,
,8.965007,-2.49E-12,,
,8.967007,-2.28E-12,,
,8.969007,-1.42E-12,,
,8.971007,-2.40E-13,,
,8.973007,2.97E-13,,
,8.975007,2.97E-13,,
,8.977007,-9.92E-13,,
,8.979007,-2.07E-12,,
,8.981007,-3.03E-12,,
,8.983007,-2.71E-12,,
,8.985007,-2.07E-12,,
,8.987007,-8.84E-13,,
,8.989007,-1.33E-13,,
,8.991007,1.89E-13,,
,8.993007,-5.62E-13,,
,8.995007,-1.64E-12,,
,8.997007,-2.60E-12,,
,8.999007,-2.82E-12,,
,9.001007,-1.96E-12,,
,9.003007,-7.77E-13,,
,9.005007,6.19E-13,,
,9.007007,1.05E-12,,
,9.009007,5.11E-13,,
,9.011007,-8.84E-13,,
,9.013007,-2.28E-12,,
,9.015007,-2.82E-12,,
,9.017007,-2.39E-12,,
,9.019007,-1.31E-12,,
,9.021007,-2.53E-14,,
,9.023007,7.26E-13,,
,9.025007,7.26E-13,,
,9.027007,-2.40E-13,,
,9.029007,-1.42E-12,,
,9.031007,-2.28E-12,,
,9.033007,-2.17E-12,,
,9.035007,-1.21E-12,,
,9.037007,2.97E-13,,
,9.039007,1.48E-12,,
,9.041007,1.69E-12,,
,9.043007,8.34E-13,,
,9.045007,-6.69E-13,,
,9.047007,-1.74E-12,,
,9.049007,-2.17E-12,,
,9.051007,-1.53E-12,,
,9.053007,-5.62E-13,,
,9.055007,7.26E-13,,
,9.057007,1.26E-12,,
,9.059007,8.34E-13,,
,9.061007,-3.47E-13,,
,9.063007,-1.53E-12,,
,9.065007,-1.85E-12,,
,9.067007,-1.64E-12,,
,9.069007,-5.62E-13,,
,9.071007,5.11E-13,,
,9.073007,1.26E-12,,
,9.075007,1.05E-12,,
,9.077007,-2.53E-14,,
,9.079007,-1.21E-12,,
,9.081007,-2.07E-12,,
,9.083007,-2.07E-12,,
,9.085007,-9.92E-13,,
,9.087007,4.04E-13,,
,9.089007,1.37E-12,,
,9.091007,1.26E-12,,
,9.093007,4.04E-13,,
,9.095007,-5.62E-13,,
,9.097007,-1.42E-12,,
,9.099007,-1.64E-12,,
,9.101007,-1.21E-12,,
,9.103007,8.20E-14,,
,9.105007,1.05E-12,,
,9.107007,1.59E-12,,
,9.109007,9.41E-13,,
,9.111007,-2.53E-14,,
,9.113007,-1.42E-12,,
,9.115007,-1.74E-12,,
,9.117007,-1.53E-12,,
,9.119007,-2.40E-13,,
,9.121007,8.34E-13,,
,9.123007,1.69E-12,,
,9.125007,1.37E-12,,
,9.127007,1.89E-13,,
,9.129007,-1.10E-12,,
,9.131007,-1.74E-12,,
,9.133007,-1.64E-12,,
,9.135007,-7.77E-13,,
,9.137007,7.26E-13,,
,9.139007,1.80E-12,,
,9.141007,2.01E-12,,
,9.143007,8.34E-13,,
,9.145007,-6.69E-13,,
,9.147007,-1.74E-12,,
,9.149007,-1.85E-12,,
,9.151007,-8.84E-13,,
,9.153007,5.11E-13,,
,9.155007,1.91E-12,,
,9.157007,2.55E-12,,
,9.159007,2.12E-12,,
,9.161007,8.34E-13,,
,9.163007,-2.40E-13,,
,9.165007,-5.62E-13,,
,9.167007,-2.53E-14,,
,9.169007,9.41E-13,,
,9.171007,2.01E-12,,
,9.173007,2.55E-12,,
,9.175007,2.23E-12,,
,9.177007,1.26E-12,,
,9.179007,2.97E-13,,
,9.181007,-2.40E-13,,
,9.183007,-1.33E-13,,
,9.185007,7.26E-13,,
,9.187007,1.91E-12,,
,9.189007,2.98E-12,,
,9.191007,3.09E-12,,
,9.193007,2.34E-12,,
,9.195007,1.05E-12,,
,9.197007,2.97E-13,,
,9.199007,2.97E-13,,
,9.201007,1.05E-12,,
,9.203007,2.23E-12,,
,9.205007,3.52E-12,,
,9.207007,4.05E-12,,
,9.209007,3.30E-12,,
,9.211007,1.69E-12,,
,9.213007,8.20E-14,,
,9.215007,-6.69E-13,,
,9.217007,-3.47E-13,,
,9.219007,8.34E-13,,
,9.221007,2.12E-12,,
,9.223007,2.98E-12,,
,9.225007,2.66E-12,,
,9.227007,1.59E-12,,
,9.229007,1.89E-13,,
,9.231007,-6.69E-13,,
,9.233007,-5.62E-13,,
,9.235007,2.97E-13,,
,9.237007,1.48E-12,,
,9.239007,2.55E-12,,
,9.241007,2.77E-12,,
,9.243007,2.01E-12,,
,9.245007,6.19E-13,,
,9.247007,-3.47E-13,,
,9.249007,-5.62E-13,,
,9.251007,1.89E-13,,
,9.253007,1.37E-12,,
,9.255007,2.55E-12,,
,9.257007,3.09E-12,,
,9.259007,2.34E-12,,
,9.261007,1.16E-12,,
,9.263007,-3.47E-13,,
,9.265007,-7.77E-13,,
,9.267007,-5.62E-13,,
,9.269007,8.34E-13,,
,9.271007,2.34E-12,,
,9.273007,3.52E-12,,
,9.275007,3.52E-12,,
,9.277007,2.34E-12,,
,9.279007,9.41E-13,,
,9.281007,-2.40E-13,,
,9.283007,-3.47E-13,,
,9.285007,1.89E-13,,
,9.287007,1.37E-12,,
,9.289007,2.12E-12,,
,9.291007,2.34E-12,,
,9.293007,1.48E-12,,
,9.295007,5.11E-13,,
,9.297007,-3.47E-13,,
,9.299007,-4.55E-13,,
,9.301007,4.04E-13,,
,9.303007,1.69E-12,,
,9.305007,2.87E-12,,
,9.307007,3.20E-12,,
,9.309007,2.34E-12,,
,9.311007,9.41E-13,,
,9.313007,-5.62E-13,,
,9.315007,-9.92E-13,,
,9.317007,-5.62E-13,,
,9.319007,5.11E-13,,
,9.321007,2.01E-12,,
,9.323007,2.87E-12,,
,9.325007,2.98E-12,,
,9.327007,1.69E-12,,
,9.329007,5.11E-13,,
,9.331007,-3.47E-13,,
,9.333007,-1.33E-13,,
,9.335007,8.34E-13,,
,9.337007,2.01E-12,,
,9.339007,2.87E-12,,
,9.341007,2.55E-12,,
,9.343007,1.48E-12,,
,9.345007,8.20E-14,,
,9.347007,-7.77E-13,,
,9.349007,-7.77E-13,,
,9.351007,-2.53E-14,,
,9.353007,1.05E-12,,
,9.355007,2.23E-12,,
,9.357007,2.55E-12,,
,9.359007,2.12E-12,,
,9.361007,8.34E-13,,
,9.363007,-3.47E-13,,
,9.365007,-7.77E-13,,
,9.367007,-4.55E-13,,
,9.369007,5.11E-13,,
,9.371007,1.69E-12,,
,9.373007,2.34E-12,,
,9.375007,2.23E-12,,
,9.377007,1.05E-12,,
,9.379007,-1.33E-13,,
,9.381007,-8.84E-13,,
,9.383007,-7.77E-13,,
,9.385007,-1.33E-13,,
,9.387007,1.16E-12,,
,9.389007,2.23E-12,,
,9.391007,2.55E-12,,
,9.393007,1.59E-12,,
,9.395007,-2.53E-14,,
,9.397007,-9.92E-13,,
,9.399007,-1.10E-12,,
,9.401007,-3.47E-13,,
,9.403007,9.41E-13,,
,9.405007,2.34E-12,,
,9.407007,3.20E-12,,
,9.409007,2.66E-12,,
,9.411007,1.26E-12,,
,9.413007,-2.40E-13,,
,9.415007,-7.77E-13,,
,9.417007,-6.69E-13,,
,9.419007,4.04E-13,,
,9.421007,1.37E-12,,
,9.423007,2.23E-12,,
,9.425007,2.01E-12,,
,9.427007,1.26E-12,,
,9.429007,2.97E-13,,
,9.431007,-2.53E-14,,
,9.433007,-2.53E-14,,
,9.435007,9.41E-13,,
,9.437007,1.80E-12,,
,9.439007,2.55E-12,,
,9.441007,2.66E-12,,
,9.443007,1.91E-12,,
,9.445007,1.16E-12,,
,9.447007,1.89E-13,,
,9.449007,5.11E-13,,
,9.451007,1.26E-12,,
,9.453007,2.66E-12,,
,9.455007,3.73E-12,,
,9.457007,4.16E-12,,
,9.459007,3.52E-12,,
,9.461007,2.34E-12,,
,9.463007,1.48E-12,,
,9.465007,1.26E-12,,
,9.467007,1.69E-12,,
,9.469007,2.66E-12,,
,9.471007,4.16E-12,,
,9.473007,5.02E-12,,
,9.475007,4.91E-12,,
,9.477007,3.30E-12,,
,9.479007,1.91E-12,,
,9.481007,8.34E-13,,
,9.483007,9.41E-13,,
,9.485007,1.80E-12,,
,9.487007,3.30E-12,,
,9.489007,4.38E-12,,
,9.491007,4.59E-12,,
,9.493007,3.62E-12,,
,9.495007,2.23E-12,,
,9.497007,1.37E-12,,
,9.499007,1.37E-12,,
,9.501007,2.01E-12,,
,9.503007,2.98E-12,,
,9.505007,4.05E-12,,
,9.507007,4.48E-12,,
,9.509007,4.05E-12,,
,9.511007,2.66E-12,,
,9.513007,1.69E-12,,
,9.515007,1.05E-12,,
,9.517007,1.37E-12,,
,9.519007,2.34E-12,,
,9.521007,3.41E-12,,
,9.523007,3.95E-12,,
,9.525007,3.41E-12,,
,9.527007,2.23E-12,,
,9.529007,1.16E-12,,
,9.531007,4.04E-13,,
,9.533007,4.04E-13,,
,9.535007,1.16E-12,,
,9.537007,2.55E-12,,
,9.539007,3.84E-12,,
,9.541007,3.84E-12,,
,9.543007,2.77E-12,,
,9.545007,1.26E-12,,
,9.547007,2.97E-13,,
,9.549007,8.20E-14,,
,9.551007,6.19E-13,,
,9.553007,1.69E-12,,
,9.555007,2.98E-12,,
,9.557007,3.41E-12,,
,9.559007,2.87E-12,,
,9.561007,1.26E-12,,
,9.563007,8.20E-14,,
,9.565007,-4.55E-13,,
,9.567007,-2.53E-14,,
,9.569007,9.41E-13,,
,9.571007,2.01E-12,,
,9.573007,2.77E-12,,
,9.575007,2.44E-12,,
,9.577007,1.26E-12,,
,9.579007,-2.40E-13,,
,9.581007,-1.21E-12,,
,9.583007,-9.92E-13,,
,9.585007,-2.53E-14,,
,9.587007,1.37E-12,,
,9.589007,2.23E-12,,
,9.591007,2.12E-12,,
,9.593007,8.34E-13,,
,9.595007,-7.77E-13,,
,9.597007,-1.53E-12,,
,9.599007,-1.42E-12,,
,9.601007,-6.69E-13,,
,9.603007,5.11E-13,,
,9.605007,1.59E-12,,
,9.607007,2.01E-12,,
,9.609007,1.26E-12,,
,9.611007,-2.53E-14,,
,9.613007,-1.21E-12,,
,9.615007,-1.85E-12,,
,9.617007,-1.53E-12,,
,9.619007,-3.47E-13,,
,9.621007,1.05E-12,,
,9.623007,1.91E-12,,
,9.625007,1.69E-12,,
,9.627007,6.19E-13,,
,9.629007,-5.62E-13,,
,9.631007,-1.21E-12,,
,9.633007,-8.84E-13,,
,9.635007,8.20E-14,,
,9.637007,1.16E-12,,
,9.639007,2.12E-12,,
,9.641007,2.01E-12,,
,9.643007,1.26E-12,,
,9.645007,-2.53E-14,,
,9.647007,-8.84E-13,,
,9.649007,-1.21E-12,,
,9.651007,-6.69E-13,,
,9.653007,6.19E-13,,
,9.655007,1.80E-12,,
,9.657007,2.01E-12,,
,9.659007,1.16E-12,,
,9.661007,-4.55E-13,,
,9.663007,-1.74E-12,,
,9.665007,-2.49E-12,,
,9.667007,-2.17E-12,,
,9.669007,-8.84E-13,,
,9.671007,5.11E-13,,
,9.673007,1.59E-12,,
,9.675007,1.26E-12,,
,9.677007,1.89E-13,,
,9.679007,-1.10E-12,,
,9.681007,-1.85E-12,,
,9.683007,-1.85E-12,,
,9.685007,-1.10E-12,,
,9.687007,-2.40E-13,,
,9.689007,8.34E-13,,
,9.691007,8.34E-13,,
,9.693007,2.97E-13,,
,9.695007,-8.84E-13,,
,9.697007,-1.64E-12,,
,9.699007,-1.74E-12,,
,9.701007,-1.31E-12,,
,9.703007,-2.40E-13,,
,9.705007,6.19E-13,,
,9.707007,1.05E-12,,
,9.709007,4.04E-13,,
,9.711007,-7.77E-13,,
,9.713007,-1.85E-12,,
,9.715007,-2.28E-12,,
,9.717007,-1.96E-12,,
,9.719007,-1.10E-12,,
,9.721007,-2.53E-14,,
,9.723007,8.34E-13,,
,9.725007,4.04E-13,,
,9.727007,-6.69E-13,,
,9.729007,-2.17E-12,,
,9.731007,-2.71E-12,,
,9.733007,-2.60E-12,,
,9.735007,-1.53E-12,,
,9.737007,-1.33E-13,,
,9.739007,8.34E-13,,
,9.741007,8.34E-13,,
,9.743007,-1.33E-13,,
,9.745007,-1.42E-12,,
,9.747007,-2.39E-12,,
,9.749007,-2.71E-12,,
,9.751007,-1.96E-12,,
,9.753007,-7.77E-13,,
,9.755007,6.19E-13,,
,9.757007,1.05E-12,,
,9.759007,4.04E-13,,
,9.761007,-8.84E-13,,
,9.763007,-2.17E-12,,
,9.765007,-2.39E-12,,
,9.767007,-2.07E-12,,
,9.769007,-8.84E-13,,
,9.771007,5.11E-13,,
,9.773007,1.26E-12,,
,9.775007,9.41E-13,,
,9.777007,-4.55E-13,,
,9.779007,-1.85E-12,,
,9.781007,-2.49E-12,,
,9.783007,-2.39E-12,,
,9.785007,-1.42E-12,,
,9.787007,-2.40E-13,,
,9.789007,7.26E-13,,
,9.791007,9.41E-13,,
,9.793007,1.89E-13,,
,9.795007,-1.10E-12,,
,9.797007,-2.17E-12,,
,9.799007,-2.39E-12,,
,9.801007,-1.53E-12,,
,9.803007,-3.47E-13,,
,9.805007,9.41E-13,,
,9.807007,9.41E-13,,
,9.809007,2.97E-13,,
,9.811007,-1.31E-12,,
,9.813007,-2.28E-12,,
,9.815007,-2.71E-12,,
,9.817007,-2.28E-12,,
,9.819007,-1.42E-12,,
,9.821007,-2.40E-13,,
,9.823007,1.89E-13,,
,9.825007,-1.33E-13,,
,9.827007,-1.21E-12,,
,9.829007,-2.28E-12,,
,9.831007,-2.82E-12,,
,9.833007,-2.82E-12,,
,9.835007,-1.85E-12,,
,9.837007,-6.69E-13,,
,9.839007,1.89E-13,,
,9.841007,-2.53E-14,,
,9.843007,-9.92E-13,,
,9.845007,-2.17E-12,,
,9.847007,-3.14E-12,,
,9.849007,-3.46E-12,,
,9.851007,-3.03E-12,,
,9.853007,-1.74E-12,,
,9.855007,-4.55E-13,,
,9.857007,-2.53E-14,,
,9.859007,-4.55E-13,,
,9.861007,-1.85E-12,,
,9.863007,-2.82E-12,,
,9.865007,-3.35E-12,,
,9.867007,-2.71E-12,,
,9.869007,-1.53E-12,,
,9.871007,-3.47E-13,,
,9.873007,5.11E-13,,
,9.875007,1.89E-13,,
,9.877007,-9.92E-13,,
,9.879007,-2.49E-12,,
,9.881007,-3.57E-12,,
,9.883007,-3.57E-12,,
,9.885007,-2.82E-12,,
,9.887007,-1.42E-12,,
,9.889007,-2.53E-14,,
,9.891007,4.04E-13,,
,9.893007,-4.55E-13,,
,9.895007,-1.96E-12,,
,9.897007,-3.25E-12,,
,9.899007,-3.35E-12,,
,9.901007,-2.60E-12,,
,9.903007,-1.31E-12,,
,9.905007,-2.40E-13,,
,9.907007,-1.33E-13,,
,9.909007,-7.77E-13,,
,9.911007,-2.17E-12,,
,9.913007,-3.03E-12,,
,9.915007,-3.25E-12,,
,9.917007,-2.82E-12,,
,9.919007,-1.74E-12,,
,9.921007,-6.69E-13,,
,9.923007,1.89E-13,,
,9.925007,-1.33E-13,,
,9.927007,-1.31E-12,,
,9.929007,-2.71E-12,,
,9.931007,-3.57E-12,,
,9.933007,-3.25E-12,,
,9.935007,-2.17E-12,,
,9.937007,-6.69E-13,,
,9.939007,8.20E-14,,
,9.941007,-1.33E-13,,
,9.943007,-1.53E-12,,
,9.945007,-2.92E-12,,
,9.947007,-3.89E-12,,
,9.949007,-3.89E-12,,
,9.951007,-3.14E-12,,
,9.953007,-1.85E-12,,
,9.955007,-5.62E-13,,
,9.957007,8.20E-14,,
,9.959007,-3.47E-13,,
,9.961007,-1.64E-12,,
,9.963007,-2.92E-12,,
,9.965007,-3.35E-12,,
,9.967007,-2.71E-12,,
,9.969007,-1.53E-12,,
,9.971007,-2.40E-13,,
,9.973007,4.04E-13,,
,9.975007,8.20E-14,,
,9.977007,-1.10E-12,,
,9.979007,-2.49E-12,,
,9.981007,-3.25E-12,,
,9.983007,-3.14E-12,,
,9.985007,-2.07E-12,,
,9.987007,-7.77E-13,,
,9.989007,8.20E-14,,
,9.991007,-2.53E-14,,
,9.993007,-7.77E-13,,
,9.995007,-1.85E-12,,
,9.997007,-2.71E-12,,
,9.999007,-2.60E-12,,
,10.001007,-1.64E-12,,
,10.003007,-1.33E-13,,
,10.005007,1.16E-12,,
,10.007007,1.48E-12,,
,10.009007,7.26E-13,,
,10.011007,-8.84E-13,,
,10.013007,-2.17E-12,,
,10.015007,-2.60E-12,,
,10.017007,-2.17E-12,,
,10.019007,-1.21E-12,,
,10.021007,8.20E-14,,
,10.023007,5.11E-13,,
,10.025007,5.11E-13,,
,10.027007,-7.77E-13,,
,10.029007,-1.85E-12,,
,10.031007,-2.60E-12,,
,10.033007,-2.39E-12,,
,10.035007,-1.64E-12,,
,10.037007,-7.77E-13,,
,10.039007,-1.33E-13,,
,10.041007,-2.40E-13,,
,10.043007,-1.21E-12,,
,10.045007,-2.60E-12,,
,10.047007,-3.46E-12,,
,10.049007,-3.57E-12,,
,10.051007,-2.82E-12,,
,10.053007,-1.31E-12,,
,10.055007,-2.53E-14,,
,10.057007,5.11E-13,,
,10.059007,-4.55E-13,,
,10.061007,-1.85E-12,,
,10.063007,-3.25E-12,,
,10.065007,-3.57E-12,,
,10.067007,-3.14E-12,,
,10.069007,-2.07E-12,,
,10.071007,-9.92E-13,,
,10.073007,-2.40E-13,,
,10.075007,-3.47E-13,,
,10.077007,-1.31E-12,,
,10.079007,-2.39E-12,,
,10.081007,-3.03E-12,,
,10.083007,-2.82E-12,,
,10.085007,-1.96E-12,,
,10.087007,-6.69E-13,,
,10.089007,8.20E-14,,
,10.091007,-2.53E-14,,
,10.093007,-9.92E-13,,
,10.095007,-2.17E-12,,
,10.097007,-3.14E-12,,
,10.099007,-3.14E-12,,
,10.101007,-2.39E-12,,
,10.103007,-1.21E-12,,
,10.105007,-1.33E-13,,
,10.107007,1.89E-13,,
,10.109007,-3.47E-13,,
,10.111007,-1.64E-12,,
,10.113007,-2.82E-12,,
,10.115007,-3.14E-12,,
,10.117007,-2.82E-12,,
,10.119007,-1.53E-12,,
,10.121007,-3.47E-13,,
,10.123007,6.19E-13,,
,10.125007,2.97E-13,,
,10.127007,-7.77E-13,,
,10.129007,-2.07E-12,,
,10.131007,-2.82E-12,,
,10.133007,-2.60E-12,,
,10.135007,-1.64E-12,,
,10.137007,-2.40E-13,,
,10.139007,7.26E-13,,
,10.141007,7.26E-13,,
,10.143007,-2.40E-13,,
,10.145007,-1.53E-12,,
,10.147007,-2.39E-12,,
,10.149007,-2.49E-12,,
,10.151007,-1.74E-12,,
,10.153007,-6.69E-13,,
,10.155007,4.04E-13,,
,10.157007,7.26E-13,,
,10.159007,-2.53E-14,,
,10.161007,-1.31E-12,,
,10.163007,-2.49E-12,,
,10.165007,-2.60E-12,,
,10.167007,-1.96E-12,,
,10.169007,-6.69E-13,,
,10.171007,5.11E-13,,
,10.173007,1.16E-12,,
,10.175007,7.26E-13,,
,10.177007,-3.47E-13,,
,10.179007,-1.64E-12,,
,10.181007,-2.28E-12,,
,10.183007,-2.17E-12,,
,10.185007,-1.21E-12,,
,10.187007,1.89E-13,,
,10.189007,1.37E-12,,
,10.191007,1.69E-12,,
,10.193007,8.34E-13,,
,10.195007,-4.55E-13,,
,10.197007,-1.53E-12,,
,10.199007,-1.74E-12,,
,10.201007,-9.92E-13,,
,10.203007,2.97E-13,,
,10.205007,1.37E-12,,
,10.207007,1.48E-12,,
,10.209007,8.34E-13,,
,10.211007,-2.40E-13,,
,10.213007,-1.42E-12,,
,10.215007,-1.85E-12,,
,10.217007,-1.42E-12,,
,10.219007,-2.53E-14,,
,10.221007,1.16E-12,,
,10.223007,1.80E-12,,
,10.225007,1.37E-12,,
,10.227007,2.97E-13,,
,10.229007,-6.69E-13,,
,10.231007,-1.21E-12,,
,10.233007,-8.84E-13,,
,10.235007,-1.33E-13,,
,10.237007,1.16E-12,,
,10.239007,1.91E-12,,
,10.241007,1.91E-12,,
,10.243007,1.05E-12,,
,10.245007,-2.53E-14,,
,10.247007,-9.92E-13,,
,10.249007,-1.10E-12,,
,10.251007,-5.62E-13,,
,10.253007,8.34E-13,,
,10.255007,2.23E-12,,
,10.257007,2.98E-12,,
,10.259007,2.34E-12,,
,10.261007,8.34E-13,,
,10.263007,-3.47E-13,,
,10.265007,-5.62E-13,,
,10.267007,-1.33E-13,,
,10.269007,8.34E-13,,
,10.271007,2.01E-12,,
,10.273007,2.98E-12,,
,10.275007,2.77E-12,,
,10.277007,1.80E-12,,
,10.279007,7.26E-13,,
,10.281007,8.20E-14,,
,10.283007,1.89E-13,,
,10.285007,8.34E-13,,
,10.287007,2.01E-12,,
,10.289007,3.09E-12,,
,10.291007,3.30E-12,,
,10.293007,2.55E-12,,
,10.295007,1.26E-12,,
,10.297007,6.19E-13,,
,10.299007,9.41E-13,,
,10.301007,1.91E-12,,
,10.303007,2.98E-12,,
,10.305007,3.84E-12,,
,10.307007,4.16E-12,,
,10.309007,3.41E-12,,
,10.311007,2.01E-12,,
,10.313007,6.19E-13,,
,10.315007,8.20E-14,,
,10.317007,5.11E-13,,
,10.319007,1.59E-12,,
,10.321007,2.87E-12,,
,10.323007,3.62E-12,,
,10.325007,3.20E-12,,
,10.327007,1.91E-12,,
,10.329007,6.19E-13,,
,10.331007,8.20E-14,,
,10.333007,2.97E-13,,
,10.335007,1.26E-12,,
,10.337007,2.66E-12,,
,10.339007,3.62E-12,,
,10.341007,3.62E-12,,
,10.343007,2.44E-12,,
,10.345007,1.16E-12,,
,10.347007,1.89E-13,,
,10.349007,-2.53E-14,,
,10.351007,6.19E-13,,
,10.353007,1.69E-12,,
,10.355007,2.98E-12,,
,10.357007,3.52E-12,,
,10.359007,2.98E-12,,
,10.361007,1.80E-12,,
,10.363007,7.26E-13,,
,10.365007,4.04E-13,,
,10.367007,8.34E-13,,
,10.369007,2.01E-12,,
,10.371007,3.52E-12,,
,10.373007,4.27E-12,,
,10.375007,3.84E-12,,
,10.377007,2.66E-12,,
,10.379007,1.37E-12,,
,10.381007,7.26E-13,,
,10.383007,7.26E-13,,
,10.385007,1.59E-12,,
,10.387007,2.66E-12,,
,10.389007,3.30E-12,,
,10.391007,3.20E-12,,
,10.393007,2.34E-12,,
,10.395007,1.16E-12,,
,10.397007,5.11E-13,,
,10.399007,5.11E-13,,
,10.401007,1.48E-12,,
,10.403007,2.66E-12,,
,10.405007,3.73E-12,,
,10.407007,3.84E-12,,
,10.409007,3.09E-12,,
,10.411007,1.69E-12,,
,10.413007,7.26E-13,,
,10.415007,4.04E-13,,
,10.417007,8.34E-13,,
,10.419007,1.80E-12,,
,10.421007,2.87E-12,,
,10.423007,3.62E-12,,
,10.425007,3.30E-12,,
,10.427007,2.12E-12,,
,10.429007,8.34E-13,,
,10.431007,1.89E-13,,
,10.433007,4.04E-13,,
,10.435007,1.37E-12,,
,10.437007,2.55E-12,,
,10.439007,3.41E-12,,
,10.441007,3.41E-12,,
,10.443007,2.66E-12,,
,10.445007,1.48E-12,,
,10.447007,5.11E-13,,
,10.449007,2.97E-13,,
,10.451007,1.05E-12,,
,10.453007,2.23E-12,,
,10.455007,3.30E-12,,
,10.457007,3.62E-12,,
,10.459007,3.20E-12,,
,10.461007,2.01E-12,,
,10.463007,9.41E-13,,
,10.465007,5.11E-13,,
,10.467007,1.05E-12,,
,10.469007,2.01E-12,,
,10.471007,3.41E-12,,
,10.473007,3.95E-12,,
,10.475007,3.73E-12,,
,10.477007,2.34E-12,,
,10.479007,1.05E-12,,
,10.481007,4.04E-13,,
,10.483007,5.11E-13,,
,10.485007,1.69E-12,,
,10.487007,2.77E-12,,
,10.489007,3.62E-12,,
,10.491007,3.41E-12,,
,10.493007,2.66E-12,,
,10.495007,1.59E-12,,
,10.497007,8.34E-13,,
,10.499007,6.19E-13,,
,10.501007,1.16E-12,,
,10.503007,2.34E-12,,
,10.505007,3.30E-12,,
,10.507007,3.52E-12,,
,10.509007,2.34E-12,,
,10.511007,9.41E-13,,
,10.513007,-2.40E-13,,
,10.515007,-5.62E-13,,
,10.517007,8.20E-14,,
,10.519007,1.37E-12,,
,10.521007,2.77E-12,,
,10.523007,3.30E-12,,
,10.525007,2.77E-12,,
,10.527007,1.59E-12,,
,10.529007,8.20E-14,,
,10.531007,-7.77E-13,,
,10.533007,-6.69E-13,,
,10.535007,4.04E-13,,
,10.537007,1.69E-12,,
,10.539007,2.44E-12,,
,10.541007,2.34E-12,,
,10.543007,1.26E-12,,
,10.545007,-2.40E-13,,
,10.547007,-1.42E-12,,
,10.549007,-1.64E-12,,
,10.551007,-9.92E-13,,
,10.553007,1.89E-13,,
,10.555007,1.16E-12,,
,10.557007,1.59E-12,,
,10.559007,8.34E-13,,
,10.561007,-2.40E-13,,
,10.563007,-1.64E-12,,
,10.565007,-2.17E-12,,
,10.567007,-1.96E-12,,
,10.569007,-9.92E-13,,
,10.571007,8.20E-14,,
,10.573007,4.04E-13,,
,10.575007,-1.33E-13,,
,10.577007,-1.31E-12,,
,10.579007,-2.49E-12,,
,10.581007,-2.92E-12,,
,10.583007,-2.82E-12,,
,10.585007,-1.96E-12,,
,10.587007,-9.92E-13,,
,10.589007,-2.53E-14,,
,10.591007,8.20E-14,,
,10.593007,-7.77E-13,,
,10.595007,-2.17E-12,,
,10.597007,-3.14E-12,,
,10.599007,-3.25E-12,,
,10.601007,-2.49E-12,,
,10.603007,-1.42E-12,,
,10.605007,-5.62E-13,,
,10.607007,-4.55E-13,,
,10.609007,-1.31E-12,,
,10.611007,-2.60E-12,,
,10.613007,-3.68E-12,,
,10.615007,-4.00E-12,,
,10.617007,-3.68E-12,,
,10.619007,-2.82E-12,,
,10.621007,-2.07E-12,,
,10.623007,-1.53E-12,,
,10.625007,-2.07E-12,,
,10.627007,-3.03E-12,,
,10.629007,-4.43E-12,,
,10.631007,-4.96E-12,,
,10.633007,-4.86E-12,,
,10.635007,-3.78E-12,,
,10.637007,-2.71E-12,,
,10.639007,-1.96E-12,,
,10.641007,-2.39E-12,,
,10.643007,-3.46E-12,,
,10.645007,-4.86E-12,,
,10.647007,-5.82E-12,,
,10.649007,-5.93E-12,,
,10.651007,-5.39E-12,,
,10.653007,-4.10E-12,,
,10.655007,-3.25E-12,,
,10.657007,-2.92E-12,,
,10.659007,-3.78E-12,,
,10.661007,-5.07E-12,,
,10.663007,-6.36E-12,,
,10.665007,-6.47E-12,,
,10.667007,-5.93E-12,,
,10.669007,-4.64E-12,,
,10.671007,-3.46E-12,,
,10.673007,-2.82E-12,,
,10.675007,-3.25E-12,,
,10.677007,-4.53E-12,,
,10.679007,-5.93E-12,,
,10.681007,-6.57E-12,,
,10.683007,-6.25E-12,,
,10.685007,-5.18E-12,,
,10.687007,-4.10E-12,,
,10.689007,-3.57E-12,,
,10.691007,-3.78E-12,,
,10.693007,-4.64E-12,,
,10.695007,-5.93E-12,,
,10.697007,-6.79E-12,,
,10.699007,-7.00E-12,,
,10.701007,-6.04E-12,,
,10.703007,-4.64E-12,,
,10.705007,-3.46E-12,,
,10.707007,-3.35E-12,,
,10.709007,-4.32E-12,,
,10.711007,-5.82E-12,,
,10.713007,-7.11E-12,,
,10.715007,-7.43E-12,,
,10.717007,-6.79E-12,,
,10.719007,-5.50E-12,,
,10.721007,-4.21E-12,,
,10.723007,-3.68E-12,,
,10.725007,-4.00E-12,,
,10.727007,-5.39E-12,,
,10.729007,-6.57E-12,,
,10.731007,-7.22E-12,,
,10.733007,-6.90E-12,,
,10.735007,-5.82E-12,,
,10.737007,-4.53E-12,,
,10.739007,-3.35E-12,,
,10.741007,-3.46E-12,,
,10.743007,-4.53E-12,,
,10.745007,-5.93E-12,,
,10.747007,-6.90E-12,,
,10.749007,-7.00E-12,,
,10.751007,-6.25E-12,,
,10.753007,-4.75E-12,,
,10.755007,-3.46E-12,,
,10.757007,-3.03E-12,,
,10.759007,-3.46E-12,,
,10.761007,-4.64E-12,,
,10.763007,-5.61E-12,,
,10.765007,-6.14E-12,,
,10.767007,-5.39E-12,,
,10.769007,-4.21E-12,,
,10.771007,-2.92E-12,,
,10.773007,-2.60E-12,,
,10.775007,-2.92E-12,,
,10.777007,-3.89E-12,,
,10.779007,-4.75E-12,,
,10.781007,-5.29E-12,,
,10.783007,-4.96E-12,,
,10.785007,-3.89E-12,,
,10.787007,-2.49E-12,,
,10.789007,-1.64E-12,,
,10.791007,-1.74E-12,,
,10.793007,-2.82E-12,,
,10.795007,-4.21E-12,,
,10.797007,-5.07E-12,,
,10.799007,-5.07E-12,,
,10.801007,-4.00E-12,,
,10.803007,-2.49E-12,,
,10.805007,-9.92E-13,,
,10.807007,-3.47E-13,,
,10.809007,-7.77E-13,,
,10.811007,-1.85E-12,,
,10.813007,-2.92E-12,,
,10.815007,-3.35E-12,,
,10.817007,-2.92E-12,,
,10.819007,-2.07E-12,,
,10.821007,-8.84E-13,,
,10.823007,-4.55E-13,,
,10.825007,-5.62E-13,,
,10.827007,-1.53E-12,,
,10.829007,-2.39E-12,,
,10.831007,-2.82E-12,,
,10.833007,-2.39E-12,,
,10.835007,-1.21E-12,,
,10.837007,1.89E-13,,
,10.839007,9.41E-13,,
,10.841007,5.11E-13,,
,10.843007,-6.69E-13,,
,10.845007,-1.85E-12,,
,10.847007,-2.39E-12,,
,10.849007,-2.17E-12,,
,10.851007,-1.10E-12,,
,10.853007,8.20E-14,,
,10.855007,1.16E-12,,
,10.857007,1.26E-12,,
,10.859007,4.04E-13,,
,10.861007,-8.84E-13,,
,10.863007,-2.07E-12,,
,10.865007,-2.28E-12,,
,10.867007,-1.85E-12,,
,10.869007,-5.62E-13,,
,10.871007,9.41E-13,,
,10.873007,1.80E-12,,
,10.875007,1.37E-12,,
,10.877007,-2.53E-14,,
,10.879007,-1.53E-12,,
,10.881007,-2.28E-12,,
,10.883007,-2.07E-12,,
,10.885007,-1.21E-12,,
,10.887007,8.20E-14,,
,10.889007,8.34E-13,,
,10.891007,8.34E-13,,
,10.893007,-1.33E-13,,
,10.895007,-1.21E-12,,
,10.897007,-2.07E-12,,
,10.899007,-2.07E-12,,
,10.901007,-1.64E-12,,
,10.903007,-2.40E-13,,
,10.905007,8.34E-13,,
,10.907007,1.26E-12,,
,10.909007,4.04E-13,,
,10.911007,-6.69E-13,,
,10.913007,-1.42E-12,,
,10.915007,-1.31E-12,,
,10.917007,-6.69E-13,,
,10.919007,4.04E-13,,
,10.921007,1.48E-12,,
,10.923007,1.80E-12,,
,10.925007,1.26E-12,,
,10.927007,-2.53E-14,,
,10.929007,-1.10E-12,,
,10.931007,-1.42E-12,,
,10.933007,-7.77E-13,,
,10.935007,7.26E-13,,
,10.937007,2.44E-12,,
,10.939007,3.52E-12,,
,10.941007,3.41E-12,,
,10.943007,2.23E-12,,
,10.945007,5.11E-13,,
,10.947007,-8.84E-13,,
,10.949007,-1.31E-12,,
,10.951007,-6.69E-13,,
,10.953007,6.19E-13,,
,10.955007,1.69E-12,,
,10.957007,1.91E-12,,
,10.959007,1.16E-12,,
,10.961007,-2.53E-14,,
,10.963007,-8.84E-13,,
,10.965007,-1.21E-12,,
,10.967007,-7.77E-13,,
,10.969007,-2.53E-14,,
,10.971007,9.41E-13,,
,10.973007,1.26E-12,,
,10.975007,9.41E-13,,
,10.977007,-2.40E-13,,
,10.979007,-1.42E-12,,
,10.981007,-2.17E-12,,
,10.983007,-2.07E-12,,
,10.985007,-1.21E-12,,
,10.987007,1.89E-13,,
,10.989007,1.05E-12,,
,10.991007,1.16E-12,,
,10.993007,1.89E-13,,
,10.995007,-8.84E-13,,
,10.997007,-1.74E-12,,
,10.999007,-1.64E-12,,
,11.001007,-6.69E-13,,
,11.003007,6.19E-13,,
,11.005007,1.69E-12,,
,11.007007,1.80E-12,,
,11.009007,1.26E-12,,
,11.011007,-2.53E-14,,
,11.013007,-9.92E-13,,
,11.015007,-1.42E-12,,
,11.017007,-6.69E-13,,
,11.019007,2.97E-13,,
,11.021007,1.69E-12,,
,11.023007,2.12E-12,,
,11.025007,2.01E-12,,
,11.027007,7.26E-13,,
,11.029007,-4.55E-13,,
,11.031007,-1.21E-12,,
,11.033007,-7.77E-13,,
,11.035007,4.04E-13,,
,11.037007,2.12E-12,,
,11.039007,2.98E-12,,
,11.041007,2.87E-12,,
,11.043007,1.48E-12,,
,11.045007,2.97E-13,,
,11.047007,-5.62E-13,,
,11.049007,-1.33E-13,,
,11.051007,6.19E-13,,
,11.053007,2.12E-12,,
,11.055007,3.09E-12,,
,11.057007,3.30E-12,,
,11.059007,2.44E-12,,
,11.061007,1.16E-12,,
,11.063007,1.89E-13,,
,11.065007,-1.33E-13,,
,11.067007,4.04E-13,,
,11.069007,1.37E-12,,
,11.071007,2.55E-12,,
,11.073007,2.98E-12,,
,11.075007,2.77E-12,,
,11.077007,1.69E-12,,
,11.079007,5.11E-13,,
,11.081007,-1.33E-13,,
,11.083007,-2.53E-14,,
,11.085007,1.05E-12,,
,11.087007,2.44E-12,,
,11.089007,3.20E-12,,
,11.091007,3.09E-12,,
,11.093007,1.91E-12,,
