5/5/2019, 2:53:48 PM ,,,
 Current Sensitivity ,1.00E-09,,,
 This file comes from It only measurement ,0.00E+00,,,
 Sampling rate ,500,,,
 Number of samples per channel ,-1,,,
 No filter from Labview , , , ,
 , ,,,
 ***End_of_Header*** ,,,,
 , Time , Current , Filtered Current , 
,0.001002,-5.30E-12,,
,0.003002,-1.03E-11,,
,0.005002,-1.52E-11,,
,0.007002,-1.45E-11,,
,0.009002,-1.40E-11,,
,0.011002,-1.33E-11,,
,0.013002,-1.26E-11,,
,0.015002,-1.18E-11,,
,0.017002,-1.12E-11,,
,0.019002,-1.08E-11,,
,0.021002,-1.04E-11,,
,0.023002,-1.00E-11,,
,0.025002,-9.26E-12,,
,0.027002,-8.51E-12,,
,0.029002,-7.75E-12,,
,0.031002,-7.33E-12,,
,0.033002,-6.79E-12,,
,0.035002,-6.68E-12,,
,0.037002,-6.57E-12,,
,0.039002,-6.57E-12,,
,0.041002,-6.04E-12,,
,0.043002,-5.39E-12,,
,0.045002,-4.43E-12,,
,0.047002,-3.89E-12,,
,0.049002,-3.46E-12,,
,0.051002,-3.46E-12,,
,0.053002,-3.14E-12,,
,0.055002,-2.92E-12,,
,0.057002,-2.49E-12,,
,0.059002,-1.96E-12,,
,0.061002,-1.21E-12,,
,0.063002,-5.62E-13,,
,0.065002,-2.40E-13,,
,0.067002,-3.47E-13,,
,0.069002,-4.55E-13,,
,0.071002,-4.55E-13,,
,0.073002,-1.33E-13,,
,0.075002,4.04E-13,,
,0.077002,8.34E-13,,
,0.079002,1.59E-12,,
,0.081002,2.12E-12,,
,0.083002,2.66E-12,,
,0.085002,2.87E-12,,
,0.087002,3.09E-12,,
,0.089002,3.41E-12,,
,0.091002,3.95E-12,,
,0.093002,4.70E-12,,
,0.095002,5.66E-12,,
,0.097002,6.63E-12,,
,0.099002,7.27E-12,,
,0.101002,7.49E-12,,
,0.103002,7.81E-12,,
,0.105002,8.24E-12,,
,0.107002,9.21E-12,,
,0.109002,1.02E-11,,
,0.111002,1.15E-11,,
,0.113002,1.28E-11,,
,0.115002,1.40E-11,,
,0.117002,1.51E-11,,
,0.119002,1.61E-11,,
,0.121002,1.69E-11,,
,0.123002,1.79E-11,,
,0.125002,1.91E-11,,
,0.127002,2.03E-11,,
,0.129002,2.17E-11,,
,0.131002,2.29E-11,,
,0.133002,2.40E-11,,
,0.135002,2.47E-11,,
,0.137002,2.52E-11,,
,0.139002,2.57E-11,,
,0.141002,2.66E-11,,
,0.143002,2.77E-11,,
,0.145002,2.92E-11,,
,0.147002,3.06E-11,,
,0.149002,3.16E-11,,
,0.151002,3.23E-11,,
,0.153002,3.29E-11,,
,0.155002,3.34E-11,,
,0.157002,3.40E-11,,
,0.159002,3.47E-11,,
,0.161002,3.54E-11,,
,0.163002,3.62E-11,,
,0.165002,3.65E-11,,
,0.167002,3.67E-11,,
,0.169002,3.67E-11,,
,0.171002,3.67E-11,,
,0.173002,3.70E-11,,
,0.175002,3.75E-11,,
,0.177002,3.84E-11,,
,0.179002,3.92E-11,,
,0.181002,3.96E-11,,
,0.183002,3.98E-11,,
,0.185002,3.97E-11,,
,0.187002,3.93E-11,,
,0.189002,3.89E-11,,
,0.191002,3.86E-11,,
,0.193002,3.87E-11,,
,0.195002,3.87E-11,,
,0.197002,3.88E-11,,
,0.199002,3.86E-11,,
,0.201002,3.84E-11,,
,0.203002,3.79E-11,,
,0.205002,3.77E-11,,
,0.207002,3.71E-11,,
,0.209002,3.71E-11,,
,0.211002,3.69E-11,,
,0.213002,3.68E-11,,
,0.215002,3.63E-11,,
,0.217002,3.55E-11,,
,0.219002,3.48E-11,,
,0.221002,3.40E-11,,
,0.223002,3.33E-11,,
,0.225002,3.28E-11,,
,0.227002,3.23E-11,,
,0.229002,3.20E-11,,
,0.231002,3.13E-11,,
,0.233002,3.07E-11,,
,0.235002,2.98E-11,,
,0.237002,2.89E-11,,
,0.239002,2.78E-11,,
,0.241002,2.70E-11,,
,0.243002,2.63E-11,,
,0.245002,2.60E-11,,
,0.247002,2.56E-11,,
,0.249002,2.52E-11,,
,0.251002,2.43E-11,,
,0.253002,2.31E-11,,
,0.255002,2.17E-11,,
,0.257002,2.08E-11,,
,0.259002,2.03E-11,,
,0.261002,1.99E-11,,
,0.263002,1.94E-11,,
,0.265002,1.85E-11,,
,0.267002,1.76E-11,,
,0.269002,1.65E-11,,
,0.271002,1.54E-11,,
,0.273002,1.46E-11,,
,0.275002,1.37E-11,,
,0.277002,1.34E-11,,
,0.279002,1.32E-11,,
,0.281002,1.30E-11,,
,0.283002,1.22E-11,,
,0.285002,1.12E-11,,
,0.287002,1.03E-11,,
,0.289002,9.53E-12,,
,0.291002,8.89E-12,,
,0.293002,8.24E-12,,
,0.295002,7.49E-12,,
,0.297002,6.95E-12,,
,0.299002,6.20E-12,,
,0.301002,5.45E-12,,
,0.303002,4.16E-12,,
,0.305002,2.87E-12,,
,0.307002,1.80E-12,,
,0.309002,1.16E-12,,
,0.311002,9.41E-13,,
,0.313002,6.19E-13,,
,0.315002,-2.53E-14,,
,0.317002,-9.92E-13,,
,0.319002,-2.28E-12,,
,0.321002,-3.68E-12,,
,0.323002,-5.18E-12,,
,0.325002,-6.36E-12,,
,0.327002,-7.00E-12,,
,0.329002,-7.54E-12,,
,0.331002,-8.29E-12,,
,0.333002,-9.37E-12,,
,0.335002,-1.05E-11,,
,0.337002,-1.16E-11,,
,0.339002,-1.25E-11,,
,0.341002,-1.31E-11,,
,0.343002,-1.36E-11,,
,0.345002,-1.40E-11,,
,0.347002,-1.46E-11,,
,0.349002,-1.51E-11,,
,0.351002,-1.57E-11,,
,0.353002,-1.65E-11,,
,0.355002,-1.76E-11,,
,0.357002,-1.84E-11,,
,0.359002,-1.87E-11,,
,0.361002,-1.86E-11,,
,0.363002,-1.87E-11,,
,0.365002,-1.89E-11,,
,0.367002,-1.95E-11,,
,0.369002,-2.00E-11,,
,0.371002,-2.04E-11,,
,0.373002,-2.07E-11,,
,0.375002,-2.11E-11,,
,0.377002,-2.11E-11,,
,0.379002,-2.11E-11,,
,0.381002,-2.10E-11,,
,0.383002,-2.15E-11,,
,0.385002,-2.18E-11,,
,0.387002,-2.22E-11,,
,0.389002,-2.24E-11,,
,0.391002,-2.26E-11,,
,0.393002,-2.27E-11,,
,0.395002,-2.26E-11,,
,0.397002,-2.25E-11,,
,0.399002,-2.26E-11,,
,0.401002,-2.31E-11,,
,0.403002,-2.38E-11,,
,0.405002,-2.44E-11,,
,0.407002,-2.47E-11,,
,0.409002,-2.50E-11,,
,0.411002,-2.50E-11,,
,0.413002,-2.49E-11,,
,0.415002,-2.49E-11,,
,0.417002,-2.53E-11,,
,0.419002,-2.59E-11,,
,0.421002,-2.64E-11,,
,0.423002,-2.70E-11,,
,0.425002,-2.75E-11,,
,0.427002,-2.78E-11,,
,0.429002,-2.80E-11,,
,0.431002,-2.83E-11,,
,0.433002,-2.90E-11,,
,0.435002,-2.98E-11,,
,0.437002,-3.07E-11,,
,0.439002,-3.15E-11,,
,0.441002,-3.19E-11,,
,0.443002,-3.21E-11,,
,0.445002,-3.19E-11,,
,0.447002,-3.19E-11,,
,0.449002,-3.20E-11,,
,0.451002,-3.28E-11,,
,0.453002,-3.36E-11,,
,0.455002,-3.45E-11,,
,0.457002,-3.51E-11,,
,0.459002,-3.57E-11,,
,0.461002,-3.60E-11,,
,0.463002,-3.64E-11,,
,0.465002,-3.70E-11,,
,0.467002,-3.77E-11,,
,0.469002,-3.88E-11,,
,0.471002,-4.00E-11,,
,0.473002,-4.10E-11,,
,0.475002,-4.17E-11,,
,0.477002,-4.21E-11,,
,0.479002,-4.26E-11,,
,0.481002,-4.32E-11,,
,0.483002,-4.41E-11,,
,0.485002,-4.52E-11,,
,0.487002,-4.66E-11,,
,0.489002,-4.79E-11,,
,0.491002,-4.89E-11,,
,0.493002,-4.96E-11,,
,0.495002,-5.04E-11,,
,0.497002,-5.14E-11,,
,0.499002,-5.25E-11,,
,0.501002,-5.39E-11,,
,0.503002,-5.55E-11,,
,0.505002,-5.74E-11,,
,0.507002,-5.87E-11,,
,0.509002,-5.98E-11,,
,0.511002,-6.06E-11,,
,0.513002,-6.14E-11,,
,0.515002,-6.24E-11,,
,0.517002,-6.38E-11,,
,0.519002,-6.54E-11,,
,0.521002,-6.71E-11,,
,0.523002,-6.87E-11,,
,0.525002,-7.00E-11,,
,0.527002,-7.12E-11,,
,0.529002,-7.22E-11,,
,0.531002,-7.36E-11,,
,0.533002,-7.55E-11,,
,0.535002,-7.74E-11,,
,0.537002,-7.93E-11,,
,0.539002,-8.11E-11,,
,0.541002,-8.30E-11,,
,0.543002,-8.47E-11,,
,0.545002,-8.58E-11,,
,0.547002,-8.70E-11,,
,0.549002,-8.83E-11,,
,0.551002,-9.00E-11,,
,0.553002,-9.17E-11,,
,0.555002,-9.35E-11,,
,0.557002,-9.50E-11,,
,0.559002,-9.64E-11,,
,0.561002,-9.78E-11,,
,0.563002,-9.93E-11,,
,0.565002,-1.01E-10,,
,0.567002,-1.02E-10,,
,0.569002,-1.04E-10,,
,0.571002,-1.06E-10,,
,0.573002,-1.07E-10,,
,0.575002,-1.09E-10,,
,0.577002,-1.10E-10,,
,0.579002,-1.11E-10,,
,0.581002,-1.11E-10,,
,0.583002,-1.12E-10,,
,0.585002,-1.14E-10,,
,0.587002,-1.16E-10,,
,0.589002,-1.17E-10,,
,0.591002,-1.18E-10,,
,0.593002,-1.19E-10,,
,0.595002,-1.20E-10,,
,0.597002,-1.21E-10,,
,0.599002,-1.23E-10,,
,0.601002,-1.24E-10,,
,0.603002,-1.26E-10,,
,0.605002,-1.27E-10,,
,0.607002,-1.28E-10,,
,0.609002,-1.29E-10,,
,0.611002,-1.30E-10,,
,0.613002,-1.31E-10,,
,0.615002,-1.32E-10,,
,0.617002,-1.33E-10,,
,0.619002,-1.34E-10,,
,0.621002,-1.36E-10,,
,0.623002,-1.38E-10,,
,0.625002,-1.39E-10,,
,0.627002,-1.40E-10,,
,0.629002,-1.41E-10,,
,0.631002,-1.42E-10,,
,0.633002,-1.43E-10,,
,0.635002,-1.44E-10,,
,0.637002,-1.46E-10,,
,0.639002,-1.48E-10,,
,0.641002,-1.49E-10,,
,0.643002,-1.51E-10,,
,0.645002,-1.51E-10,,
,0.647002,-1.52E-10,,
,0.649002,-1.53E-10,,
,0.651002,-1.54E-10,,
,0.653002,-1.56E-10,,
,0.655002,-1.57E-10,,
,0.657002,-1.58E-10,,
,0.659002,-1.59E-10,,
,0.661002,-1.60E-10,,
,0.663002,-1.61E-10,,
,0.665002,-1.62E-10,,
,0.667002,-1.64E-10,,
,0.669002,-1.65E-10,,
,0.671002,-1.66E-10,,
,0.673002,-1.68E-10,,
,0.675002,-1.69E-10,,
,0.677002,-1.70E-10,,
,0.679002,-1.70E-10,,
,0.681002,-1.71E-10,,
,0.683002,-1.72E-10,,
,0.685002,-1.73E-10,,
,0.687002,-1.74E-10,,
,0.689002,-1.76E-10,,
,0.691002,-1.77E-10,,
,0.693002,-1.77E-10,,
,0.695002,-1.78E-10,,
,0.697002,-1.79E-10,,
,0.699002,-1.80E-10,,
,0.701002,-1.81E-10,,
,0.703002,-1.83E-10,,
,0.705002,-1.85E-10,,
,0.707002,-1.86E-10,,
,0.709002,-1.87E-10,,
,0.711002,-1.87E-10,,
,0.713002,-1.88E-10,,
,0.715002,-1.89E-10,,
,0.717002,-1.90E-10,,
,0.719002,-1.91E-10,,
,0.721002,-1.93E-10,,
,0.723002,-1.94E-10,,
,0.725002,-1.95E-10,,
,0.727002,-1.96E-10,,
,0.729002,-1.97E-10,,
,0.731002,-1.98E-10,,
,0.733002,-1.99E-10,,
,0.735002,-2.00E-10,,
,0.737002,-2.02E-10,,
,0.739002,-2.03E-10,,
,0.741002,-2.04E-10,,
,0.743002,-2.05E-10,,
,0.745002,-2.06E-10,,
,0.747002,-2.07E-10,,
,0.749002,-2.07E-10,,
,0.751002,-2.08E-10,,
,0.753002,-2.10E-10,,
,0.755002,-2.11E-10,,
,0.757002,-2.12E-10,,
,0.759002,-2.13E-10,,
,0.761002,-2.14E-10,,
,0.763002,-2.14E-10,,
,0.765002,-2.15E-10,,
,0.767002,-2.16E-10,,
,0.769002,-2.18E-10,,
,0.771002,-2.19E-10,,
,0.773002,-2.20E-10,,
,0.775002,-2.21E-10,,
,0.777002,-2.22E-10,,
,0.779002,-2.22E-10,,
,0.781002,-2.23E-10,,
,0.783002,-2.23E-10,,
,0.785002,-2.25E-10,,
,0.787002,-2.26E-10,,
,0.789002,-2.27E-10,,
,0.791002,-2.28E-10,,
,0.793002,-2.29E-10,,
,0.795002,-2.30E-10,,
,0.797002,-2.31E-10,,
,0.799002,-2.31E-10,,
,0.801002,-2.32E-10,,
,0.803002,-2.34E-10,,
,0.805002,-2.35E-10,,
,0.807002,-2.36E-10,,
,0.809002,-2.36E-10,,
,0.811002,-2.37E-10,,
,0.813002,-2.37E-10,,
,0.815002,-2.38E-10,,
,0.817002,-2.39E-10,,
,0.819002,-2.40E-10,,
,0.821002,-2.41E-10,,
,0.823002,-2.43E-10,,
,0.825002,-2.44E-10,,
,0.827002,-2.44E-10,,
,0.829002,-2.45E-10,,
,0.831002,-2.46E-10,,
,0.833002,-2.47E-10,,
,0.835002,-2.49E-10,,
,0.837002,-2.51E-10,,
,0.839002,-2.52E-10,,
,0.841002,-2.54E-10,,
,0.843002,-2.55E-10,,
,0.845002,-2.56E-10,,
,0.847002,-2.57E-10,,
,0.849002,-2.58E-10,,
,0.851002,-2.60E-10,,
,0.853002,-2.61E-10,,
,0.855002,-2.64E-10,,
,0.857002,-2.66E-10,,
,0.859002,-2.67E-10,,
,0.861002,-2.69E-10,,
,0.863002,-2.70E-10,,
,0.865002,-2.72E-10,,
,0.867002,-2.75E-10,,
,0.869002,-2.77E-10,,
,0.871002,-2.79E-10,,
,0.873002,-2.82E-10,,
,0.875002,-2.83E-10,,
,0.877002,-2.85E-10,,
,0.879002,-2.86E-10,,
,0.881002,-2.88E-10,,
,0.883002,-2.90E-10,,
,0.885002,-2.92E-10,,
,0.887002,-2.95E-10,,
,0.889002,-2.97E-10,,
,0.891002,-3.00E-10,,
,0.893002,-3.02E-10,,
,0.895002,-3.04E-10,,
,0.897002,-3.06E-10,,
,0.899002,-3.07E-10,,
,0.901002,-3.10E-10,,
,0.903002,-3.12E-10,,
,0.905002,-3.14E-10,,
,0.907002,-3.16E-10,,
,0.909002,-3.18E-10,,
,0.911002,-3.20E-10,,
,0.913002,-3.21E-10,,
,0.915002,-3.22E-10,,
,0.917002,-3.24E-10,,
,0.919002,-3.26E-10,,
,0.921002,-3.28E-10,,
,0.923002,-3.29E-10,,
,0.925002,-3.31E-10,,
,0.927002,-3.32E-10,,
,0.929002,-3.33E-10,,
,0.931002,-3.35E-10,,
,0.933002,-3.36E-10,,
,0.935002,-3.37E-10,,
,0.937002,-3.38E-10,,
,0.939002,-3.39E-10,,
,0.941002,-3.40E-10,,
,0.943002,-3.41E-10,,
,0.945002,-3.41E-10,,
,0.947002,-3.41E-10,,
,0.949002,-3.41E-10,,
,0.951002,-3.42E-10,,
,0.953002,-3.42E-10,,
,0.955002,-3.42E-10,,
,0.957002,-3.42E-10,,
,0.959002,-3.42E-10,,
,0.961002,-3.41E-10,,
,0.963002,-3.40E-10,,
,0.965002,-3.39E-10,,
,0.967002,-3.39E-10,,
,0.969002,-3.38E-10,,
,0.971002,-3.38E-10,,
,0.973002,-3.36E-10,,
,0.975002,-3.35E-10,,
,0.977002,-3.34E-10,,
,0.979002,-3.32E-10,,
,0.981002,-3.30E-10,,
,0.983002,-3.28E-10,,
,0.985002,-3.26E-10,,
,0.987002,-3.25E-10,,
,0.989002,-3.23E-10,,
,0.991002,-3.22E-10,,
,0.993002,-3.20E-10,,
,0.995002,-3.17E-10,,
,0.997002,-3.15E-10,,
,0.999002,-3.13E-10,,
,1.001002,-3.11E-10,,
,1.003002,-3.08E-10,,
,1.005002,-3.06E-10,,
,1.007002,-3.04E-10,,
,1.009002,-3.01E-10,,
,1.011002,-2.98E-10,,
,1.013002,-2.95E-10,,
,1.015002,-2.92E-10,,
,1.017002,-2.89E-10,,
,1.019002,-2.86E-10,,
,1.021002,-2.84E-10,,
,1.023002,-2.81E-10,,
,1.025002,-2.78E-10,,
,1.027002,-2.75E-10,,
,1.029002,-2.71E-10,,
,1.031002,-2.68E-10,,
,1.033002,-2.65E-10,,
,1.035002,-2.62E-10,,
,1.037002,-2.59E-10,,
,1.039002,-2.55E-10,,
,1.041002,-2.52E-10,,
,1.043002,-2.48E-10,,
,1.045002,-2.44E-10,,
,1.047002,-2.40E-10,,
,1.049002,-2.36E-10,,
,1.051002,-2.32E-10,,
,1.053002,-2.29E-10,,
,1.055002,-2.25E-10,,
,1.057002,-2.21E-10,,
,1.059002,-2.17E-10,,
,1.061002,-2.13E-10,,
,1.063002,-2.09E-10,,
,1.065002,-2.04E-10,,
,1.067002,-2.00E-10,,
,1.069002,-1.96E-10,,
,1.071002,-1.92E-10,,
,1.073002,-1.88E-10,,
,1.075002,-1.84E-10,,
,1.077002,-1.79E-10,,
,1.079002,-1.75E-10,,
,1.081002,-1.70E-10,,
,1.083002,-1.66E-10,,
,1.085002,-1.61E-10,,
,1.087002,-1.57E-10,,
,1.089002,-1.54E-10,,
,1.091002,-1.49E-10,,
,1.093002,-1.45E-10,,
,1.095002,-1.40E-10,,
,1.097002,-1.36E-10,,
,1.099002,-1.32E-10,,
,1.101002,-1.28E-10,,
,1.103002,-1.25E-10,,
,1.105002,-1.21E-10,,
,1.107002,-1.18E-10,,
,1.109002,-1.14E-10,,
,1.111002,-1.10E-10,,
,1.113002,-1.06E-10,,
,1.115002,-1.02E-10,,
,1.117002,-9.80E-11,,
,1.119002,-9.45E-11,,
,1.121002,-9.14E-11,,
,1.123002,-8.82E-11,,
,1.125002,-8.51E-11,,
,1.127002,-8.13E-11,,
,1.129002,-7.80E-11,,
,1.131002,-7.46E-11,,
,1.133002,-7.20E-11,,
,1.135002,-6.94E-11,,
,1.137002,-6.69E-11,,
,1.139002,-6.45E-11,,
,1.141002,-6.20E-11,,
,1.143002,-5.91E-11,,
,1.145002,-5.60E-11,,
,1.147002,-5.30E-11,,
,1.149002,-5.03E-11,,
,1.151002,-4.80E-11,,
,1.153002,-4.59E-11,,
,1.155002,-4.39E-11,,
,1.157002,-4.15E-11,,
,1.159002,-3.93E-11,,
,1.161002,-3.67E-11,,
,1.163002,-3.44E-11,,
,1.165002,-3.19E-11,,
,1.167002,-2.99E-11,,
,1.169002,-2.84E-11,,
,1.171002,-2.69E-11,,
,1.173002,-2.54E-11,,
,1.175002,-2.34E-11,,
,1.177002,-2.12E-11,,
,1.179002,-1.87E-11,,
,1.181002,-1.65E-11,,
,1.183002,-1.46E-11,,
,1.185002,-1.30E-11,,
,1.187002,-1.15E-11,,
,1.189002,-1.01E-11,,
,1.191002,-8.61E-12,,
,1.193002,-7.00E-12,,
,1.195002,-5.18E-12,,
,1.197002,-3.57E-12,,
,1.199002,-1.96E-12,,
,1.201002,-6.69E-13,,
,1.203002,2.97E-13,,
,1.205002,1.37E-12,,
,1.207002,2.44E-12,,
,1.209002,4.27E-12,,
,1.211002,5.99E-12,,
,1.213002,8.03E-12,,
,1.215002,9.64E-12,,
,1.217002,1.11E-11,,
,1.219002,1.22E-11,,
,1.221002,1.32E-11,,
,1.223002,1.43E-11,,
,1.225002,1.54E-11,,
,1.227002,1.66E-11,,
,1.229002,1.79E-11,,
,1.231002,1.93E-11,,
,1.233002,2.05E-11,,
,1.235002,2.13E-11,,
,1.237002,2.20E-11,,
,1.239002,2.29E-11,,
,1.241002,2.36E-11,,
,1.243002,2.48E-11,,
,1.245002,2.61E-11,,
,1.247002,2.78E-11,,
,1.249002,2.89E-11,,
,1.251002,2.97E-11,,
,1.253002,3.02E-11,,
,1.255002,3.09E-11,,
,1.257002,3.13E-11,,
,1.259002,3.21E-11,,
,1.261002,3.29E-11,,
,1.263002,3.40E-11,,
,1.265002,3.49E-11,,
,1.267002,3.55E-11,,
,1.269002,3.59E-11,,
,1.271002,3.64E-11,,
,1.273002,3.69E-11,,
,1.275002,3.74E-11,,
,1.277002,3.81E-11,,
,1.279002,3.87E-11,,
,1.281002,3.93E-11,,
,1.283002,3.97E-11,,
,1.285002,3.98E-11,,
,1.287002,4.00E-11,,
,1.289002,3.99E-11,,
,1.291002,4.00E-11,,
,1.293002,4.03E-11,,
,1.295002,4.10E-11,,
,1.297002,4.15E-11,,
,1.299002,4.16E-11,,
,1.301002,4.13E-11,,
,1.303002,4.07E-11,,
,1.305002,3.99E-11,,
,1.307002,3.92E-11,,
,1.309002,3.88E-11,,
,1.311002,3.86E-11,,
,1.313002,3.86E-11,,
,1.315002,3.84E-11,,
,1.317002,3.80E-11,,
,1.319002,3.71E-11,,
,1.321002,3.59E-11,,
,1.323002,3.48E-11,,
,1.325002,3.36E-11,,
,1.327002,3.27E-11,,
,1.329002,3.19E-11,,
,1.331002,3.10E-11,,
,1.333002,2.94E-11,,
,1.335002,2.75E-11,,
,1.337002,2.53E-11,,
,1.339002,2.34E-11,,
,1.341002,2.17E-11,,
,1.343002,2.01E-11,,
,1.345002,1.87E-11,,
,1.347002,1.69E-11,,
,1.349002,1.52E-11,,
,1.351002,1.32E-11,,
,1.353002,1.10E-11,,
,1.355002,8.56E-12,,
,1.357002,5.99E-12,,
,1.359002,3.52E-12,,
,1.361002,1.26E-12,,
,1.363002,-9.92E-13,,
,1.365002,-3.35E-12,,
,1.367002,-6.14E-12,,
,1.369002,-9.15E-12,,
,1.371002,-1.24E-11,,
,1.373002,-1.53E-11,,
,1.375002,-1.81E-11,,
,1.377002,-2.09E-11,,
,1.379002,-2.38E-11,,
,1.381002,-2.69E-11,,
,1.383002,-2.97E-11,,
,1.385002,-3.29E-11,,
,1.387002,-3.63E-11,,
,1.389002,-4.02E-11,,
,1.391002,-4.38E-11,,
,1.393002,-4.73E-11,,
,1.395002,-5.04E-11,,
,1.397002,-5.36E-11,,
,1.399002,-5.70E-11,,
,1.401002,-6.10E-11,,
,1.403002,-6.53E-11,,
,1.405002,-6.97E-11,,
,1.407002,-7.39E-11,,
,1.409002,-7.79E-11,,
,1.411002,-8.16E-11,,
,1.413002,-8.55E-11,,
,1.415002,-8.95E-11,,
,1.417002,-9.35E-11,,
,1.419002,-9.77E-11,,
,1.421002,-1.02E-10,,
,1.423002,-1.07E-10,,
,1.425002,-1.11E-10,,
,1.427002,-1.16E-10,,
,1.429002,-1.20E-10,,
,1.431002,-1.25E-10,,
,1.433002,-1.30E-10,,
,1.435002,-1.35E-10,,
,1.437002,-1.40E-10,,
,1.439002,-1.45E-10,,
,1.441002,-1.50E-10,,
,1.443002,-1.55E-10,,
,1.445002,-1.60E-10,,
,1.447002,-1.64E-10,,
,1.449002,-1.69E-10,,
,1.451002,-1.75E-10,,
,1.453002,-1.80E-10,,
,1.455002,-1.85E-10,,
,1.457002,-1.90E-10,,
,1.459002,-1.96E-10,,
,1.461002,-2.01E-10,,
,1.463002,-2.06E-10,,
,1.465002,-2.11E-10,,
,1.467002,-2.16E-10,,
,1.469002,-2.22E-10,,
,1.471002,-2.27E-10,,
,1.473002,-2.33E-10,,
,1.475002,-2.38E-10,,
,1.477002,-2.43E-10,,
,1.479002,-2.48E-10,,
,1.481002,-2.53E-10,,
,1.483002,-2.58E-10,,
,1.485002,-2.63E-10,,
,1.487002,-2.69E-10,,
,1.489002,-2.74E-10,,
,1.491002,-2.80E-10,,
,1.493002,-2.85E-10,,
,1.495002,-2.89E-10,,
,1.497002,-2.94E-10,,
,1.499002,-2.98E-10,,
,1.501002,-3.03E-10,,
,1.503002,-3.09E-10,,
,1.505002,-3.14E-10,,
,1.507002,-3.19E-10,,
,1.509002,-3.23E-10,,
,1.511002,-3.28E-10,,
,1.513002,-3.32E-10,,
,1.515002,-3.36E-10,,
,1.517002,-3.41E-10,,
,1.519002,-3.45E-10,,
,1.521002,-3.50E-10,,
,1.523002,-3.54E-10,,
,1.525002,-3.59E-10,,
,1.527002,-3.63E-10,,
,1.529002,-3.66E-10,,
,1.531002,-3.70E-10,,
,1.533002,-3.74E-10,,
,1.535002,-3.78E-10,,
,1.537002,-3.82E-10,,
,1.539002,-3.86E-10,,
,1.541002,-3.90E-10,,
,1.543002,-3.93E-10,,
,1.545002,-3.96E-10,,
,1.547002,-3.99E-10,,
,1.549002,-4.02E-10,,
,1.551002,-4.05E-10,,
,1.553002,-4.08E-10,,
,1.555002,-4.11E-10,,
,1.557002,-4.14E-10,,
,1.559002,-4.16E-10,,
,1.561002,-4.19E-10,,
,1.563002,-4.21E-10,,
,1.565002,-4.23E-10,,
,1.567002,-4.25E-10,,
,1.569002,-4.28E-10,,
,1.571002,-4.30E-10,,
,1.573002,-4.32E-10,,
,1.575002,-4.34E-10,,
,1.577002,-4.36E-10,,
,1.579002,-4.37E-10,,
,1.581002,-4.39E-10,,
,1.583002,-4.40E-10,,
,1.585002,-4.41E-10,,
,1.587002,-4.43E-10,,
,1.589002,-4.44E-10,,
,1.591002,-4.45E-10,,
,1.593002,-4.45E-10,,
,1.595002,-4.46E-10,,
,1.597002,-4.46E-10,,
,1.599002,-4.47E-10,,
,1.601002,-4.47E-10,,
,1.603002,-4.48E-10,,
,1.605002,-4.49E-10,,
,1.607002,-4.49E-10,,
,1.609002,-4.49E-10,,
,1.611002,-4.48E-10,,
,1.613002,-4.48E-10,,
,1.615002,-4.47E-10,,
,1.617002,-4.47E-10,,
,1.619002,-4.46E-10,,
,1.621002,-4.46E-10,,
,1.623002,-4.45E-10,,
,1.625002,-4.45E-10,,
,1.627002,-4.44E-10,,
,1.629002,-4.43E-10,,
,1.631002,-4.42E-10,,
,1.633002,-4.41E-10,,
,1.635002,-4.40E-10,,
,1.637002,-4.39E-10,,
,1.639002,-4.38E-10,,
,1.641002,-4.37E-10,,
,1.643002,-4.35E-10,,
,1.645002,-4.34E-10,,
,1.647002,-4.32E-10,,
,1.649002,-4.30E-10,,
,1.651002,-4.28E-10,,
,1.653002,-4.27E-10,,
,1.655002,-4.25E-10,,
,1.657002,-4.24E-10,,
,1.659002,-4.22E-10,,
,1.661002,-4.20E-10,,
,1.663002,-4.18E-10,,
,1.665002,-4.16E-10,,
,1.667002,-4.14E-10,,
,1.669002,-4.12E-10,,
,1.671002,-4.10E-10,,
,1.673002,-4.09E-10,,
,1.675002,-4.07E-10,,
,1.677002,-4.04E-10,,
,1.679002,-4.02E-10,,
,1.681002,-3.99E-10,,
,1.683002,-3.97E-10,,
,1.685002,-3.96E-10,,
,1.687002,-3.94E-10,,
,1.689002,-3.92E-10,,
,1.691002,-3.90E-10,,
,1.693002,-3.89E-10,,
,1.695002,-3.86E-10,,
,1.697002,-3.84E-10,,
,1.699002,-3.82E-10,,
,1.701002,-3.81E-10,,
,1.703002,-3.80E-10,,
,1.705002,-3.78E-10,,
,1.707002,-3.77E-10,,
,1.709002,-3.75E-10,,
,1.711002,-3.73E-10,,
,1.713002,-3.72E-10,,
,1.715002,-3.70E-10,,
,1.717002,-3.69E-10,,
,1.719002,-3.68E-10,,
,1.721002,-3.67E-10,,
,1.723002,-3.66E-10,,
,1.725002,-3.65E-10,,
,1.727002,-3.64E-10,,
,1.729002,-3.63E-10,,
,1.731002,-3.61E-10,,
,1.733002,-3.60E-10,,
,1.735002,-3.60E-10,,
,1.737002,-3.59E-10,,
,1.739002,-3.58E-10,,
,1.741002,-3.58E-10,,
,1.743002,-3.57E-10,,
,1.745002,-3.56E-10,,
,1.747002,-3.55E-10,,
,1.749002,-3.54E-10,,
,1.751002,-3.53E-10,,
,1.753002,-3.52E-10,,
,1.755002,-3.52E-10,,
,1.757002,-3.51E-10,,
,1.759002,-3.50E-10,,
,1.761002,-3.49E-10,,
,1.763002,-3.47E-10,,
,1.765002,-3.46E-10,,
,1.767002,-3.45E-10,,
,1.769002,-3.44E-10,,
,1.771002,-3.43E-10,,
,1.773002,-3.43E-10,,
,1.775002,-3.42E-10,,
,1.777002,-3.41E-10,,
,1.779002,-3.39E-10,,
,1.781002,-3.38E-10,,
,1.783002,-3.37E-10,,
,1.785002,-3.36E-10,,
,1.787002,-3.35E-10,,
,1.789002,-3.34E-10,,
,1.791002,-3.32E-10,,
,1.793002,-3.31E-10,,
,1.795002,-3.29E-10,,
,1.797002,-3.27E-10,,
,1.799002,-3.26E-10,,
,1.801002,-3.24E-10,,
,1.803002,-3.23E-10,,
,1.805002,-3.22E-10,,
,1.807002,-3.21E-10,,
,1.809002,-3.20E-10,,
,1.811002,-3.18E-10,,
,1.813002,-3.16E-10,,
,1.815002,-3.15E-10,,
,1.817002,-3.13E-10,,
,1.819002,-3.11E-10,,
,1.821002,-3.10E-10,,
,1.823002,-3.08E-10,,
,1.825002,-3.07E-10,,
,1.827002,-3.05E-10,,
,1.829002,-3.03E-10,,
,1.831002,-3.02E-10,,
,1.833002,-3.01E-10,,
,1.835002,-3.00E-10,,
,1.837002,-2.98E-10,,
,1.839002,-2.98E-10,,
,1.841002,-2.97E-10,,
,1.843002,-2.95E-10,,
,1.845002,-2.93E-10,,
,1.847002,-2.91E-10,,
,1.849002,-2.90E-10,,
,1.851002,-2.88E-10,,
,1.853002,-2.87E-10,,
,1.855002,-2.87E-10,,
,1.857002,-2.86E-10,,
,1.859002,-2.85E-10,,
,1.861002,-2.84E-10,,
,1.863002,-2.83E-10,,
,1.865002,-2.82E-10,,
,1.867002,-2.81E-10,,
,1.869002,-2.81E-10,,
,1.871002,-2.81E-10,,
,1.873002,-2.81E-10,,
,1.875002,-2.80E-10,,
,1.877002,-2.79E-10,,
,1.879002,-2.79E-10,,
,1.881002,-2.78E-10,,
,1.883002,-2.78E-10,,
,1.885002,-2.78E-10,,
,1.887002,-2.78E-10,,
,1.889002,-2.78E-10,,
,1.891002,-2.77E-10,,
,1.893002,-2.77E-10,,
,1.895002,-2.76E-10,,
,1.897002,-2.76E-10,,
,1.899002,-2.75E-10,,
,1.901002,-2.75E-10,,
,1.903002,-2.75E-10,,
,1.905002,-2.76E-10,,
,1.907002,-2.75E-10,,
,1.909002,-2.75E-10,,
,1.911002,-2.74E-10,,
,1.913002,-2.73E-10,,
,1.915002,-2.71E-10,,
,1.917002,-2.70E-10,,
,1.919002,-2.69E-10,,
,1.921002,-2.68E-10,,
,1.923002,-2.67E-10,,
,1.925002,-2.65E-10,,
,1.927002,-2.64E-10,,
,1.929002,-2.62E-10,,
,1.931002,-2.60E-10,,
,1.933002,-2.58E-10,,
,1.935002,-2.57E-10,,
,1.937002,-2.55E-10,,
,1.939002,-2.54E-10,,
,1.941002,-2.52E-10,,
,1.943002,-2.50E-10,,
,1.945002,-2.47E-10,,
,1.947002,-2.45E-10,,
,1.949002,-2.42E-10,,
,1.951002,-2.40E-10,,
,1.953002,-2.38E-10,,
,1.955002,-2.36E-10,,
,1.957002,-2.34E-10,,
,1.959002,-2.31E-10,,
,1.961002,-2.29E-10,,
,1.963002,-2.26E-10,,
,1.965002,-2.24E-10,,
,1.967002,-2.22E-10,,
,1.969002,-2.19E-10,,
,1.971002,-2.17E-10,,
,1.973002,-2.15E-10,,
,1.975002,-2.12E-10,,
,1.977002,-2.09E-10,,
,1.979002,-2.06E-10,,
,1.981002,-2.03E-10,,
,1.983002,-2.00E-10,,
,1.985002,-1.98E-10,,
,1.987002,-1.96E-10,,
,1.989002,-1.94E-10,,
,1.991002,-1.91E-10,,
,1.993002,-1.89E-10,,
,1.995002,-1.86E-10,,
,1.997002,-1.83E-10,,
,1.999002,-1.81E-10,,
,2.001002,-1.78E-10,,
,2.003002,-1.76E-10,,
,2.005002,-1.74E-10,,
,2.007002,-1.72E-10,,
,2.009002,-1.69E-10,,
,2.011002,-1.67E-10,,
,2.013002,-1.64E-10,,
,2.015002,-1.62E-10,,
,2.017002,-1.60E-10,,
,2.019002,-1.58E-10,,
,2.021002,-1.56E-10,,
,2.023002,-1.54E-10,,
,2.025002,-1.51E-10,,
,2.027002,-1.49E-10,,
,2.029002,-1.46E-10,,
,2.031002,-1.44E-10,,
,2.033002,-1.42E-10,,
,2.035002,-1.40E-10,,
,2.037002,-1.38E-10,,
,2.039002,-1.36E-10,,
,2.041002,-1.34E-10,,
,2.043002,-1.32E-10,,
,2.045002,-1.29E-10,,
,2.047002,-1.27E-10,,
,2.049002,-1.24E-10,,
,2.051002,-1.22E-10,,
,2.053002,-1.21E-10,,
,2.055002,-1.18E-10,,
,2.057002,-1.16E-10,,
,2.059002,-1.14E-10,,
,2.061002,-1.12E-10,,
,2.063002,-1.09E-10,,
,2.065002,-1.07E-10,,
,2.067002,-1.04E-10,,
,2.069002,-1.03E-10,,
,2.071002,-1.01E-10,,
,2.073002,-9.89E-11,,
,2.075002,-9.65E-11,,
,2.077002,-9.40E-11,,
,2.079002,-9.12E-11,,
,2.081002,-8.86E-11,,
,2.083002,-8.62E-11,,
,2.085002,-8.42E-11,,
,2.087002,-8.23E-11,,
,2.089002,-8.01E-11,,
,2.091002,-7.76E-11,,
,2.093002,-7.50E-11,,
,2.095002,-7.24E-11,,
,2.097002,-6.98E-11,,
,2.099002,-6.74E-11,,
,2.101002,-6.52E-11,,
,2.103002,-6.33E-11,,
,2.105002,-6.12E-11,,
,2.107002,-5.91E-11,,
,2.109002,-5.66E-11,,
,2.111002,-5.41E-11,,
,2.113002,-5.13E-11,,
,2.115002,-4.89E-11,,
,2.117002,-4.65E-11,,
,2.119002,-4.46E-11,,
,2.121002,-4.25E-11,,
,2.123002,-4.04E-11,,
,2.125002,-3.80E-11,,
,2.127002,-3.58E-11,,
,2.129002,-3.34E-11,,
,2.131002,-3.13E-11,,
,2.133002,-2.90E-11,,
,2.135002,-2.73E-11,,
,2.137002,-2.57E-11,,
,2.139002,-2.41E-11,,
,2.141002,-2.21E-11,,
,2.143002,-1.99E-11,,
,2.145002,-1.76E-11,,
,2.147002,-1.53E-11,,
,2.149002,-1.29E-11,,
,2.151002,-1.09E-11,,
,2.153002,-9.15E-12,,
,2.155002,-7.86E-12,,
,2.157002,-6.36E-12,,
,2.159002,-4.75E-12,,
,2.161002,-2.92E-12,,
,2.163002,-1.10E-12,,
,2.165002,8.34E-13,,
,2.167002,2.34E-12,,
,2.169002,3.62E-12,,
,2.171002,4.81E-12,,
,2.173002,6.20E-12,,
,2.175002,7.70E-12,,
,2.177002,9.31E-12,,
,2.179002,1.09E-11,,
,2.181002,1.23E-11,,
,2.183002,1.38E-11,,
,2.185002,1.50E-11,,
,2.187002,1.60E-11,,
,2.189002,1.64E-11,,
,2.191002,1.72E-11,,
,2.193002,1.82E-11,,
,2.195002,1.95E-11,,
,2.197002,2.10E-11,,
,2.199002,2.21E-11,,
,2.201002,2.32E-11,,
,2.203002,2.35E-11,,
,2.205002,2.42E-11,,
,2.207002,2.47E-11,,
,2.209002,2.57E-11,,
,2.211002,2.64E-11,,
,2.213002,2.75E-11,,
,2.215002,2.81E-11,,
,2.217002,2.89E-11,,
,2.219002,2.92E-11,,
,2.221002,2.96E-11,,
,2.223002,3.00E-11,,
,2.225002,3.07E-11,,
,2.227002,3.14E-11,,
,2.229002,3.24E-11,,
,2.231002,3.33E-11,,
,2.233002,3.38E-11,,
,2.235002,3.41E-11,,
,2.237002,3.43E-11,,
,2.239002,3.45E-11,,
,2.241002,3.50E-11,,
,2.243002,3.54E-11,,
,2.245002,3.64E-11,,
,2.247002,3.71E-11,,
,2.249002,3.81E-11,,
,2.251002,3.86E-11,,
,2.253002,3.91E-11,,
,2.255002,3.94E-11,,
,2.257002,3.99E-11,,
,2.259002,4.09E-11,,
,2.261002,4.17E-11,,
,2.263002,4.27E-11,,
,2.265002,4.35E-11,,
,2.267002,4.43E-11,,
,2.269002,4.50E-11,,
,2.271002,4.56E-11,,
,2.273002,4.64E-11,,
,2.275002,4.72E-11,,
,2.277002,4.85E-11,,
,2.279002,5.01E-11,,
,2.281002,5.16E-11,,
,2.283002,5.26E-11,,
,2.285002,5.32E-11,,
,2.287002,5.41E-11,,
,2.289002,5.49E-11,,
,2.291002,5.61E-11,,
,2.293002,5.74E-11,,
,2.295002,5.89E-11,,
,2.297002,6.03E-11,,
,2.299002,6.14E-11,,
,2.301002,6.25E-11,,
,2.303002,6.31E-11,,
,2.305002,6.39E-11,,
,2.307002,6.48E-11,,
,2.309002,6.61E-11,,
,2.311002,6.76E-11,,
,2.313002,6.90E-11,,
,2.315002,7.04E-11,,
,2.317002,7.15E-11,,
,2.319002,7.23E-11,,
,2.321002,7.30E-11,,
,2.323002,7.37E-11,,
,2.325002,7.46E-11,,
,2.327002,7.57E-11,,
,2.329002,7.68E-11,,
,2.331002,7.82E-11,,
,2.333002,7.93E-11,,
,2.335002,8.01E-11,,
,2.337002,8.06E-11,,
,2.339002,8.10E-11,,
,2.341002,8.19E-11,,
,2.343002,8.30E-11,,
,2.345002,8.42E-11,,
,2.347002,8.54E-11,,
,2.349002,8.62E-11,,
,2.351002,8.69E-11,,
,2.353002,8.76E-11,,
,2.355002,8.82E-11,,
,2.357002,8.88E-11,,
,2.359002,8.93E-11,,
,2.361002,9.00E-11,,
,2.363002,9.12E-11,,
,2.365002,9.21E-11,,
,2.367002,9.25E-11,,
,2.369002,9.26E-11,,
,2.371002,9.27E-11,,
,2.373002,9.33E-11,,
,2.375002,9.37E-11,,
,2.377002,9.42E-11,,
,2.379002,9.51E-11,,
,2.381002,9.58E-11,,
,2.383002,9.65E-11,,
,2.385002,9.67E-11,,
,2.387002,9.68E-11,,
,2.389002,9.68E-11,,
,2.391002,9.70E-11,,
,2.393002,9.76E-11,,
,2.395002,9.83E-11,,
,2.397002,9.88E-11,,
,2.399002,9.95E-11,,
,2.401002,1.00E-10,,
,2.403002,1.00E-10,,
,2.405002,9.99E-11,,
,2.407002,1.00E-10,,
,2.409002,1.01E-10,,
,2.411002,1.02E-10,,
,2.413002,1.02E-10,,
,2.415002,1.03E-10,,
,2.417002,1.03E-10,,
,2.419002,1.03E-10,,
,2.421002,1.03E-10,,
,2.423002,1.04E-10,,
,2.425002,1.04E-10,,
,2.427002,1.05E-10,,
,2.429002,1.06E-10,,
,2.431002,1.07E-10,,
,2.433002,1.07E-10,,
,2.435002,1.08E-10,,
,2.437002,1.08E-10,,
,2.439002,1.09E-10,,
,2.441002,1.10E-10,,
,2.443002,1.10E-10,,
,2.445002,1.12E-10,,
,2.447002,1.13E-10,,
,2.449002,1.14E-10,,
,2.451002,1.15E-10,,
,2.453002,1.15E-10,,
,2.455002,1.15E-10,,
,2.457002,1.16E-10,,
,2.459002,1.17E-10,,
,2.461002,1.19E-10,,
,2.463002,1.20E-10,,
,2.465002,1.21E-10,,
,2.467002,1.22E-10,,
,2.469002,1.23E-10,,
,2.471002,1.24E-10,,
,2.473002,1.25E-10,,
,2.475002,1.26E-10,,
,2.477002,1.27E-10,,
,2.479002,1.29E-10,,
,2.481002,1.30E-10,,
,2.483002,1.31E-10,,
,2.485002,1.32E-10,,
,2.487002,1.33E-10,,
,2.489002,1.33E-10,,
,2.491002,1.35E-10,,
,2.493002,1.36E-10,,
,2.495002,1.38E-10,,
,2.497002,1.39E-10,,
,2.499002,1.41E-10,,
,2.501002,1.41E-10,,
,2.503002,1.42E-10,,
,2.505002,1.43E-10,,
,2.507002,1.44E-10,,
,2.509002,1.45E-10,,
,2.511002,1.46E-10,,
,2.513002,1.47E-10,,
,2.515002,1.49E-10,,
,2.517002,1.50E-10,,
,2.519002,1.50E-10,,
,2.521002,1.51E-10,,
,2.523002,1.51E-10,,
,2.525002,1.52E-10,,
,2.527002,1.53E-10,,
,2.529002,1.55E-10,,
,2.531002,1.56E-10,,
,2.533002,1.56E-10,,
,2.535002,1.56E-10,,
,2.537002,1.56E-10,,
,2.539002,1.57E-10,,
,2.541002,1.57E-10,,
,2.543002,1.57E-10,,
,2.545002,1.57E-10,,
,2.547002,1.58E-10,,
,2.549002,1.58E-10,,
,2.551002,1.58E-10,,
,2.553002,1.58E-10,,
,2.555002,1.58E-10,,
,2.557002,1.58E-10,,
,2.559002,1.58E-10,,
,2.561002,1.58E-10,,
,2.563002,1.58E-10,,
,2.565002,1.58E-10,,
,2.567002,1.58E-10,,
,2.569002,1.57E-10,,
,2.571002,1.56E-10,,
,2.573002,1.55E-10,,
,2.575002,1.55E-10,,
,2.577002,1.54E-10,,
,2.579002,1.54E-10,,
,2.581002,1.54E-10,,
,2.583002,1.53E-10,,
,2.585002,1.52E-10,,
,2.587002,1.51E-10,,
,2.589002,1.50E-10,,
,2.591002,1.48E-10,,
,2.593002,1.48E-10,,
,2.595002,1.47E-10,,
,2.597002,1.46E-10,,
,2.599002,1.45E-10,,
,2.601002,1.43E-10,,
,2.603002,1.42E-10,,
,2.605002,1.41E-10,,
,2.607002,1.39E-10,,
,2.609002,1.38E-10,,
,2.611002,1.37E-10,,
,2.613002,1.35E-10,,
,2.615002,1.34E-10,,
,2.617002,1.33E-10,,
,2.619002,1.31E-10,,
,2.621002,1.29E-10,,
,2.623002,1.28E-10,,
,2.625002,1.26E-10,,
,2.627002,1.25E-10,,
,2.629002,1.24E-10,,
,2.631002,1.22E-10,,
,2.633002,1.21E-10,,
,2.635002,1.19E-10,,
,2.637002,1.17E-10,,
,2.639002,1.15E-10,,
,2.641002,1.14E-10,,
,2.643002,1.12E-10,,
,2.645002,1.11E-10,,
,2.647002,1.09E-10,,
,2.649002,1.08E-10,,
,2.651002,1.06E-10,,
,2.653002,1.04E-10,,
,2.655002,1.02E-10,,
,2.657002,9.98E-11,,
,2.659002,9.81E-11,,
,2.661002,9.64E-11,,
,2.663002,9.50E-11,,
,2.665002,9.32E-11,,
,2.667002,9.13E-11,,
,2.669002,8.92E-11,,
,2.671002,8.73E-11,,
,2.673002,8.52E-11,,
,2.675002,8.33E-11,,
,2.677002,8.17E-11,,
,2.679002,8.00E-11,,
,2.681002,7.82E-11,,
,2.683002,7.63E-11,,
,2.685002,7.46E-11,,
,2.687002,7.25E-11,,
,2.689002,7.05E-11,,
,2.691002,6.87E-11,,
,2.693002,6.74E-11,,
,2.695002,6.60E-11,,
,2.697002,6.44E-11,,
,2.699002,6.27E-11,,
,2.701002,6.10E-11,,
,2.703002,5.91E-11,,
,2.705002,5.71E-11,,
,2.707002,5.50E-11,,
,2.709002,5.32E-11,,
,2.711002,5.17E-11,,
,2.713002,5.06E-11,,
,2.715002,4.94E-11,,
,2.717002,4.80E-11,,
,2.719002,4.62E-11,,
,2.721002,4.44E-11,,
,2.723002,4.27E-11,,
,2.725002,4.12E-11,,
,2.727002,3.99E-11,,
,2.729002,3.86E-11,,
,2.731002,3.73E-11,,
,2.733002,3.60E-11,,
,2.735002,3.43E-11,,
,2.737002,3.22E-11,,
,2.739002,3.00E-11,,
,2.741002,2.84E-11,,
,2.743002,2.74E-11,,
,2.745002,2.66E-11,,
,2.747002,2.54E-11,,
,2.749002,2.39E-11,,
,2.751002,2.21E-11,,
,2.753002,2.03E-11,,
,2.755002,1.87E-11,,
,2.757002,1.73E-11,,
,2.759002,1.62E-11,,
,2.761002,1.52E-11,,
,2.763002,1.39E-11,,
,2.765002,1.29E-11,,
,2.767002,1.14E-11,,
,2.769002,1.01E-11,,
,2.771002,8.24E-12,,
,2.773002,6.63E-12,,
,2.775002,5.13E-12,,
,2.777002,3.95E-12,,
,2.779002,2.98E-12,,
,2.781002,2.12E-12,,
,2.783002,1.16E-12,,
,2.785002,-2.53E-14,,
,2.787002,-1.42E-12,,
,2.789002,-2.60E-12,,
,2.791002,-3.46E-12,,
,2.793002,-4.21E-12,,
,2.795002,-4.75E-12,,
,2.797002,-5.29E-12,,
,2.799002,-5.82E-12,,
,2.801002,-6.90E-12,,
,2.803002,-8.08E-12,,
,2.805002,-9.15E-12,,
,2.807002,-9.90E-12,,
,2.809002,-1.04E-11,,
,2.811002,-1.10E-11,,
,2.813002,-1.12E-11,,
,2.815002,-1.17E-11,,
,2.817002,-1.23E-11,,
,2.819002,-1.31E-11,,
,2.821002,-1.39E-11,,
,2.823002,-1.46E-11,,
,2.825002,-1.52E-11,,
,2.827002,-1.55E-11,,
,2.829002,-1.55E-11,,
,2.831002,-1.55E-11,,
,2.833002,-1.58E-11,,
,2.835002,-1.67E-11,,
,2.837002,-1.75E-11,,
,2.839002,-1.82E-11,,
,2.841002,-1.87E-11,,
,2.843002,-1.92E-11,,
,2.845002,-1.98E-11,,
,2.847002,-2.00E-11,,
,2.849002,-2.02E-11,,
,2.851002,-2.02E-11,,
,2.853002,-2.06E-11,,
,2.855002,-2.10E-11,,
,2.857002,-2.14E-11,,
,2.859002,-2.13E-11,,
,2.861002,-2.12E-11,,
,2.863002,-2.12E-11,,
,2.865002,-2.15E-11,,
,2.867002,-2.21E-11,,
,2.869002,-2.28E-11,,
,2.871002,-2.35E-11,,
,2.873002,-2.41E-11,,
,2.875002,-2.45E-11,,
,2.877002,-2.44E-11,,
,2.879002,-2.44E-11,,
,2.881002,-2.41E-11,,
,2.883002,-2.43E-11,,
,2.885002,-2.45E-11,,
,2.887002,-2.50E-11,,
,2.889002,-2.56E-11,,
,2.891002,-2.59E-11,,
,2.893002,-2.61E-11,,
,2.895002,-2.60E-11,,
,2.897002,-2.57E-11,,
,2.899002,-2.57E-11,,
,2.901002,-2.60E-11,,
,2.903002,-2.68E-11,,
,2.905002,-2.73E-11,,
,2.907002,-2.76E-11,,
,2.909002,-2.78E-11,,
,2.911002,-2.79E-11,,
,2.913002,-2.78E-11,,
,2.915002,-2.78E-11,,
,2.917002,-2.82E-11,,
,2.919002,-2.88E-11,,
,2.921002,-2.90E-11,,
,2.923002,-2.91E-11,,
,2.925002,-2.89E-11,,
,2.927002,-2.87E-11,,
,2.929002,-2.83E-11,,
,2.931002,-2.82E-11,,
,2.933002,-2.83E-11,,
,2.935002,-2.88E-11,,
,2.937002,-2.92E-11,,
,2.939002,-2.98E-11,,
,2.941002,-3.01E-11,,
,2.943002,-3.01E-11,,
,2.945002,-2.99E-11,,
,2.947002,-2.93E-11,,
,2.949002,-2.89E-11,,
,2.951002,-2.87E-11,,
,2.953002,-2.87E-11,,
,2.955002,-2.88E-11,,
,2.957002,-2.88E-11,,
,2.959002,-2.88E-11,,
,2.961002,-2.85E-11,,
,2.963002,-2.80E-11,,
,2.965002,-2.75E-11,,
,2.967002,-2.72E-11,,
,2.969002,-2.73E-11,,
,2.971002,-2.75E-11,,
,2.973002,-2.78E-11,,
,2.975002,-2.76E-11,,
,2.977002,-2.73E-11,,
,2.979002,-2.69E-11,,
,2.981002,-2.66E-11,,
,2.983002,-2.63E-11,,
,2.985002,-2.62E-11,,
,2.987002,-2.60E-11,,
,2.989002,-2.60E-11,,
,2.991002,-2.59E-11,,
,2.993002,-2.56E-11,,
,2.995002,-2.50E-11,,
,2.997002,-2.45E-11,,
,2.999002,-2.43E-11,,
,3.001002,-2.42E-11,,
,3.003002,-2.43E-11,,
,3.005002,-2.44E-11,,
,3.007002,-2.43E-11,,
,3.009002,-2.41E-11,,
,3.011002,-2.36E-11,,
,3.013002,-2.36E-11,,
,3.015002,-2.34E-11,,
,3.017002,-2.33E-11,,
,3.019002,-2.31E-11,,
,3.021002,-2.31E-11,,
,3.023002,-2.30E-11,,
,3.025002,-2.29E-11,,
,3.027002,-2.25E-11,,
,3.029002,-2.21E-11,,
,3.031002,-2.15E-11,,
,3.033002,-2.13E-11,,
,3.035002,-2.13E-11,,
,3.037002,-2.17E-11,,
,3.039002,-2.20E-11,,
,3.041002,-2.20E-11,,
,3.043002,-2.18E-11,,
,3.045002,-2.13E-11,,
,3.047002,-2.09E-11,,
,3.049002,-2.06E-11,,
,3.051002,-2.07E-11,,
,3.053002,-2.12E-11,,
,3.055002,-2.15E-11,,
,3.057002,-2.15E-11,,
,3.059002,-2.12E-11,,
,3.061002,-2.09E-11,,
,3.063002,-2.06E-11,,
,3.065002,-2.06E-11,,
,3.067002,-2.06E-11,,
,3.069002,-2.10E-11,,
,3.071002,-2.14E-11,,
,3.073002,-2.18E-11,,
,3.075002,-2.24E-11,,
,3.077002,-2.25E-11,,
,3.079002,-2.27E-11,,
,3.081002,-2.25E-11,,
,3.083002,-2.27E-11,,
,3.085002,-2.30E-11,,
,3.087002,-2.39E-11,,
,3.089002,-2.45E-11,,
,3.091002,-2.49E-11,,
,3.093002,-2.51E-11,,
,3.095002,-2.54E-11,,
,3.097002,-2.56E-11,,
,3.099002,-2.59E-11,,
,3.101002,-2.64E-11,,
,3.103002,-2.74E-11,,
,3.105002,-2.82E-11,,
,3.107002,-2.90E-11,,
,3.109002,-2.97E-11,,
,3.111002,-3.02E-11,,
,3.113002,-3.06E-11,,
,3.115002,-3.09E-11,,
,3.117002,-3.16E-11,,
,3.119002,-3.21E-11,,
,3.121002,-3.30E-11,,
,3.123002,-3.37E-11,,
,3.125002,-3.44E-11,,
,3.127002,-3.48E-11,,
,3.129002,-3.51E-11,,
,3.131002,-3.57E-11,,
,3.133002,-3.63E-11,,
,3.135002,-3.74E-11,,
,3.137002,-3.86E-11,,
,3.139002,-3.96E-11,,
,3.141002,-4.03E-11,,
,3.143002,-4.10E-11,,
,3.145002,-4.15E-11,,
,3.147002,-4.19E-11,,
,3.149002,-4.21E-11,,
,3.151002,-4.29E-11,,
,3.153002,-4.39E-11,,
,3.155002,-4.51E-11,,
,3.157002,-4.61E-11,,
,3.159002,-4.68E-11,,
,3.161002,-4.73E-11,,
,3.163002,-4.77E-11,,
,3.165002,-4.80E-11,,
,3.167002,-4.87E-11,,
,3.169002,-4.96E-11,,
,3.171002,-5.07E-11,,
,3.173002,-5.18E-11,,
,3.175002,-5.27E-11,,
,3.177002,-5.33E-11,,
,3.179002,-5.38E-11,,
,3.181002,-5.41E-11,,
,3.183002,-5.48E-11,,
,3.185002,-5.52E-11,,
,3.187002,-5.57E-11,,
,3.189002,-5.66E-11,,
,3.191002,-5.72E-11,,
,3.193002,-5.78E-11,,
,3.195002,-5.78E-11,,
,3.197002,-5.82E-11,,
,3.199002,-5.86E-11,,
,3.201002,-5.96E-11,,
,3.203002,-6.03E-11,,
,3.205002,-6.11E-11,,
,3.207002,-6.18E-11,,
,3.209002,-6.25E-11,,
,3.211002,-6.29E-11,,
,3.213002,-6.32E-11,,
,3.215002,-6.32E-11,,
,3.217002,-6.35E-11,,
,3.219002,-6.40E-11,,
,3.221002,-6.47E-11,,
,3.223002,-6.51E-11,,
,3.225002,-6.54E-11,,
,3.227002,-6.56E-11,,
,3.229002,-6.58E-11,,
,3.231002,-6.58E-11,,
,3.233002,-6.62E-11,,
,3.235002,-6.66E-11,,
,3.237002,-6.74E-11,,
,3.239002,-6.82E-11,,
,3.241002,-6.86E-11,,
,3.243002,-6.87E-11,,
,3.245002,-6.85E-11,,
,3.247002,-6.84E-11,,
,3.249002,-6.85E-11,,
,3.251002,-6.89E-11,,
,3.253002,-6.95E-11,,
,3.255002,-7.01E-11,,
,3.257002,-7.06E-11,,
,3.259002,-7.07E-11,,
,3.261002,-7.02E-11,,
,3.263002,-6.97E-11,,
,3.265002,-6.93E-11,,
,3.267002,-6.94E-11,,
,3.269002,-6.98E-11,,
,3.271002,-7.05E-11,,
,3.273002,-7.08E-11,,
,3.275002,-7.10E-11,,
,3.277002,-7.10E-11,,
,3.279002,-7.09E-11,,
,3.281002,-7.07E-11,,
,3.283002,-7.05E-11,,
,3.285002,-7.02E-11,,
,3.287002,-7.03E-11,,
,3.289002,-7.03E-11,,
,3.291002,-7.05E-11,,
,3.293002,-7.02E-11,,
,3.295002,-6.97E-11,,
,3.297002,-6.92E-11,,
,3.299002,-6.89E-11,,
,3.301002,-6.93E-11,,
,3.303002,-6.94E-11,,
,3.305002,-6.95E-11,,
,3.307002,-6.95E-11,,
,3.309002,-6.93E-11,,
,3.311002,-6.91E-11,,
,3.313002,-6.85E-11,,
,3.315002,-6.84E-11,,
,3.317002,-6.81E-11,,
,3.319002,-6.81E-11,,
,3.321002,-6.80E-11,,
,3.323002,-6.78E-11,,
,3.325002,-6.73E-11,,
,3.327002,-6.70E-11,,
,3.329002,-6.67E-11,,
,3.331002,-6.63E-11,,
,3.333002,-6.58E-11,,
,3.335002,-6.56E-11,,
,3.337002,-6.56E-11,,
,3.339002,-6.58E-11,,
,3.341002,-6.59E-11,,
,3.343002,-6.60E-11,,
,3.345002,-6.55E-11,,
,3.347002,-6.49E-11,,
,3.349002,-6.42E-11,,
,3.351002,-6.38E-11,,
,3.353002,-6.35E-11,,
,3.355002,-6.34E-11,,
,3.357002,-6.33E-11,,
,3.359002,-6.30E-11,,
,3.361002,-6.26E-11,,
,3.363002,-6.23E-11,,
,3.365002,-6.19E-11,,
,3.367002,-6.18E-11,,
,3.369002,-6.19E-11,,
,3.371002,-6.24E-11,,
,3.373002,-6.25E-11,,
,3.375002,-6.25E-11,,
,3.377002,-6.21E-11,,
,3.379002,-6.16E-11,,
,3.381002,-6.11E-11,,
,3.383002,-6.09E-11,,
,3.385002,-6.09E-11,,
,3.387002,-6.12E-11,,
,3.389002,-6.14E-11,,
,3.391002,-6.19E-11,,
,3.393002,-6.20E-11,,
,3.395002,-6.21E-11,,
,3.397002,-6.18E-11,,
,3.399002,-6.18E-11,,
,3.401002,-6.20E-11,,
,3.403002,-6.26E-11,,
,3.405002,-6.34E-11,,
,3.407002,-6.38E-11,,
,3.409002,-6.42E-11,,
,3.411002,-6.44E-11,,
,3.413002,-6.48E-11,,
,3.415002,-6.51E-11,,
,3.417002,-6.54E-11,,
,3.419002,-6.60E-11,,
,3.421002,-6.65E-11,,
,3.423002,-6.72E-11,,
,3.425002,-6.78E-11,,
,3.427002,-6.83E-11,,
,3.429002,-6.86E-11,,
,3.431002,-6.89E-11,,
,3.433002,-6.97E-11,,
,3.435002,-7.05E-11,,
,3.437002,-7.14E-11,,
,3.439002,-7.24E-11,,
,3.441002,-7.33E-11,,
,3.443002,-7.42E-11,,
,3.445002,-7.47E-11,,
,3.447002,-7.54E-11,,
,3.449002,-7.62E-11,,
,3.451002,-7.75E-11,,
,3.453002,-7.89E-11,,
,3.455002,-8.01E-11,,
,3.457002,-8.13E-11,,
,3.459002,-8.25E-11,,
,3.461002,-8.38E-11,,
,3.463002,-8.47E-11,,
,3.465002,-8.58E-11,,
,3.467002,-8.72E-11,,
,3.469002,-8.90E-11,,
,3.471002,-9.10E-11,,
,3.473002,-9.30E-11,,
,3.475002,-9.48E-11,,
,3.477002,-9.64E-11,,
,3.479002,-9.79E-11,,
,3.481002,-9.95E-11,,
,3.483002,-1.01E-10,,
,3.485002,-1.04E-10,,
,3.487002,-1.06E-10,,
,3.489002,-1.09E-10,,
,3.491002,-1.11E-10,,
,3.493002,-1.13E-10,,
,3.495002,-1.15E-10,,
,3.497002,-1.16E-10,,
,3.499002,-1.18E-10,,
,3.501002,-1.20E-10,,
,3.503002,-1.23E-10,,
,3.505002,-1.25E-10,,
,3.507002,-1.27E-10,,
,3.509002,-1.29E-10,,
,3.511002,-1.31E-10,,
,3.513002,-1.33E-10,,
,3.515002,-1.35E-10,,
,3.517002,-1.38E-10,,
,3.519002,-1.40E-10,,
,3.521002,-1.43E-10,,
,3.523002,-1.45E-10,,
,3.525002,-1.47E-10,,
,3.527002,-1.49E-10,,
,3.529002,-1.51E-10,,
,3.531002,-1.53E-10,,
,3.533002,-1.55E-10,,
,3.535002,-1.57E-10,,
,3.537002,-1.59E-10,,
,3.539002,-1.62E-10,,
,3.541002,-1.64E-10,,
,3.543002,-1.66E-10,,
,3.545002,-1.68E-10,,
,3.547002,-1.69E-10,,
,3.549002,-1.71E-10,,
,3.551002,-1.74E-10,,
,3.553002,-1.76E-10,,
,3.555002,-1.78E-10,,
,3.557002,-1.80E-10,,
,3.559002,-1.82E-10,,
,3.561002,-1.83E-10,,
,3.563002,-1.85E-10,,
,3.565002,-1.87E-10,,
,3.567002,-1.88E-10,,
,3.569002,-1.90E-10,,
,3.571002,-1.93E-10,,
,3.573002,-1.95E-10,,
,3.575002,-1.97E-10,,
,3.577002,-1.98E-10,,
,3.579002,-2.00E-10,,
,3.581002,-2.01E-10,,
,3.583002,-2.02E-10,,
,3.585002,-2.04E-10,,
,3.587002,-2.06E-10,,
,3.589002,-2.07E-10,,
,3.591002,-2.09E-10,,
,3.593002,-2.10E-10,,
,3.595002,-2.11E-10,,
,3.597002,-2.12E-10,,
,3.599002,-2.13E-10,,
,3.601002,-2.14E-10,,
,3.603002,-2.15E-10,,
,3.605002,-2.17E-10,,
,3.607002,-2.18E-10,,
,3.609002,-2.19E-10,,
,3.611002,-2.19E-10,,
,3.613002,-2.20E-10,,
,3.615002,-2.20E-10,,
,3.617002,-2.21E-10,,
,3.619002,-2.22E-10,,
,3.621002,-2.22E-10,,
,3.623002,-2.23E-10,,
,3.625002,-2.23E-10,,
,3.627002,-2.23E-10,,
,3.629002,-2.22E-10,,
,3.631002,-2.22E-10,,
,3.633002,-2.21E-10,,
,3.635002,-2.21E-10,,
,3.637002,-2.21E-10,,
,3.639002,-2.21E-10,,
,3.641002,-2.20E-10,,
,3.643002,-2.19E-10,,
,3.645002,-2.18E-10,,
,3.647002,-2.17E-10,,
,3.649002,-2.16E-10,,
,3.651002,-2.15E-10,,
,3.653002,-2.14E-10,,
,3.655002,-2.13E-10,,
,3.657002,-2.11E-10,,
,3.659002,-2.09E-10,,
,3.661002,-2.07E-10,,
,3.663002,-2.05E-10,,
,3.665002,-2.03E-10,,
,3.667002,-2.01E-10,,
,3.669002,-1.99E-10,,
,3.671002,-1.97E-10,,
,3.673002,-1.95E-10,,
,3.675002,-1.93E-10,,
,3.677002,-1.91E-10,,
,3.679002,-1.88E-10,,
,3.681002,-1.85E-10,,
,3.683002,-1.83E-10,,
,3.685002,-1.80E-10,,
,3.687002,-1.78E-10,,
,3.689002,-1.75E-10,,
,3.691002,-1.73E-10,,
,3.693002,-1.70E-10,,
,3.695002,-1.67E-10,,
,3.697002,-1.64E-10,,
,3.699002,-1.61E-10,,
,3.701002,-1.58E-10,,
,3.703002,-1.56E-10,,
,3.705002,-1.54E-10,,
,3.707002,-1.51E-10,,
,3.709002,-1.48E-10,,
,3.711002,-1.46E-10,,
,3.713002,-1.43E-10,,
,3.715002,-1.39E-10,,
,3.717002,-1.36E-10,,
,3.719002,-1.34E-10,,
,3.721002,-1.31E-10,,
,3.723002,-1.29E-10,,
,3.725002,-1.26E-10,,
,3.727002,-1.23E-10,,
,3.729002,-1.19E-10,,
,3.731002,-1.16E-10,,
,3.733002,-1.12E-10,,
,3.735002,-1.10E-10,,
,3.737002,-1.07E-10,,
,3.739002,-1.04E-10,,
,3.741002,-1.02E-10,,
,3.743002,-9.87E-11,,
,3.745002,-9.55E-11,,
,3.747002,-9.20E-11,,
,3.749002,-8.88E-11,,
,3.751002,-8.57E-11,,
,3.753002,-8.27E-11,,
,3.755002,-7.97E-11,,
,3.757002,-7.65E-11,,
,3.759002,-7.31E-11,,
,3.761002,-6.93E-11,,
,3.763002,-6.57E-11,,
,3.765002,-6.18E-11,,
,3.767002,-5.84E-11,,
,3.769002,-5.51E-11,,
,3.771002,-5.21E-11,,
,3.773002,-4.89E-11,,
,3.775002,-4.54E-11,,
,3.777002,-4.20E-11,,
,3.779002,-3.84E-11,,
,3.781002,-3.46E-11,,
,3.783002,-3.07E-11,,
,3.785002,-2.71E-11,,
,3.787002,-2.39E-11,,
,3.789002,-2.07E-11,,
,3.791002,-1.72E-11,,
,3.793002,-1.32E-11,,
,3.795002,-9.15E-12,,
,3.797002,-5.39E-12,,
,3.799002,-1.64E-12,,
,3.801002,1.69E-12,,
,3.803002,5.02E-12,,
,3.805002,7.81E-12,,
,3.807002,1.08E-11,,
,3.809002,1.37E-11,,
,3.811002,1.72E-11,,
,3.813002,2.05E-11,,
,3.815002,2.38E-11,,
,3.817002,2.70E-11,,
,3.819002,3.02E-11,,
,3.821002,3.31E-11,,
,3.823002,3.59E-11,,
,3.825002,3.85E-11,,
,3.827002,4.16E-11,,
,3.829002,4.46E-11,,
,3.831002,4.77E-11,,
,3.833002,5.03E-11,,
,3.835002,5.27E-11,,
,3.837002,5.47E-11,,
,3.839002,5.68E-11,,
,3.841002,5.88E-11,,
,3.843002,6.14E-11,,
,3.845002,6.40E-11,,
,3.847002,6.65E-11,,
,3.849002,6.87E-11,,
,3.851002,7.05E-11,,
,3.853002,7.23E-11,,
,3.855002,7.41E-11,,
,3.857002,7.59E-11,,
,3.859002,7.74E-11,,
,3.861002,7.89E-11,,
,3.863002,8.06E-11,,
,3.865002,8.23E-11,,
,3.867002,8.36E-11,,
,3.869002,8.46E-11,,
,3.871002,8.54E-11,,
,3.873002,8.65E-11,,
,3.875002,8.75E-11,,
,3.877002,8.85E-11,,
,3.879002,8.95E-11,,
,3.881002,9.05E-11,,
,3.883002,9.12E-11,,
,3.885002,9.19E-11,,
,3.887002,9.22E-11,,
,3.889002,9.24E-11,,
,3.891002,9.26E-11,,
,3.893002,9.31E-11,,
,3.895002,9.37E-11,,
,3.897002,9.42E-11,,
,3.899002,9.44E-11,,
,3.901002,9.42E-11,,
,3.903002,9.39E-11,,
,3.905002,9.35E-11,,
,3.907002,9.32E-11,,
,3.909002,9.28E-11,,
,3.911002,9.27E-11,,
,3.913002,9.27E-11,,
,3.915002,9.26E-11,,
,3.917002,9.22E-11,,
,3.919002,9.13E-11,,
,3.921002,9.07E-11,,
,3.923002,8.97E-11,,
,3.925002,8.91E-11,,
,3.927002,8.81E-11,,
,3.929002,8.78E-11,,
,3.931002,8.73E-11,,
,3.933002,8.68E-11,,
,3.935002,8.58E-11,,
,3.937002,8.44E-11,,
,3.939002,8.27E-11,,
,3.941002,8.15E-11,,
,3.943002,8.04E-11,,
,3.945002,7.94E-11,,
,3.947002,7.83E-11,,
,3.949002,7.71E-11,,
,3.951002,7.57E-11,,
,3.953002,7.41E-11,,
,3.955002,7.24E-11,,
,3.957002,7.07E-11,,
,3.959002,6.94E-11,,
,3.961002,6.83E-11,,
,3.963002,6.72E-11,,
,3.965002,6.59E-11,,
,3.967002,6.46E-11,,
,3.969002,6.29E-11,,
,3.971002,6.11E-11,,
,3.973002,5.90E-11,,
,3.975002,5.74E-11,,
,3.977002,5.60E-11,,
,3.979002,5.47E-11,,
,3.981002,5.34E-11,,
,3.983002,5.19E-11,,
,3.985002,5.03E-11,,
,3.987002,4.84E-11,,
,3.989002,4.65E-11,,
,3.991002,4.48E-11,,
,3.993002,4.37E-11,,
,3.995002,4.27E-11,,
,3.997002,4.15E-11,,
,3.999002,4.02E-11,,
,4.001002,3.87E-11,,
,4.003002,3.71E-11,,
,4.005002,3.53E-11,,
,4.007002,3.38E-11,,
,4.009002,3.24E-11,,
,4.011002,3.16E-11,,
,4.013002,3.07E-11,,
,4.015002,3.00E-11,,
,4.017002,2.89E-11,,
,4.019002,2.77E-11,,
,4.021002,2.63E-11,,
,4.023002,2.52E-11,,
,4.025002,2.42E-11,,
,4.027002,2.35E-11,,
,4.029002,2.29E-11,,
,4.031002,2.27E-11,,
,4.033002,2.23E-11,,
,4.035002,2.13E-11,,
,4.037002,2.02E-11,,
,4.039002,1.93E-11,,
,4.041002,1.88E-11,,
,4.043002,1.83E-11,,
,4.045002,1.82E-11,,
,4.047002,1.82E-11,,
,4.049002,1.83E-11,,
,4.051002,1.80E-11,,
,4.053002,1.77E-11,,
,4.055002,1.72E-11,,
,4.057002,1.70E-11,,
,4.059002,1.73E-11,,
,4.061002,1.78E-11,,
,4.063002,1.82E-11,,
,4.065002,1.88E-11,,
,4.067002,1.91E-11,,
,4.069002,1.93E-11,,
,4.071002,1.91E-11,,
,4.073002,1.91E-11,,
,4.075002,1.92E-11,,
,4.077002,1.97E-11,,
,4.079002,2.03E-11,,
,4.081002,2.11E-11,,
,4.083002,2.18E-11,,
,4.085002,2.25E-11,,
,4.087002,2.29E-11,,
,4.089002,2.32E-11,,
,4.091002,2.36E-11,,
,4.093002,2.43E-11,,
,4.095002,2.55E-11,,
,4.097002,2.66E-11,,
,4.099002,2.76E-11,,
,4.101002,2.83E-11,,
,4.103002,2.86E-11,,
,4.105002,2.91E-11,,
,4.107002,2.96E-11,,
,4.109002,3.06E-11,,
,4.111002,3.15E-11,,
,4.113002,3.26E-11,,
,4.115002,3.35E-11,,
,4.117002,3.44E-11,,
,4.119002,3.50E-11,,
,4.121002,3.57E-11,,
,4.123002,3.62E-11,,
,4.125002,3.70E-11,,
,4.127002,3.80E-11,,
,4.129002,3.89E-11,,
,4.131002,3.99E-11,,
,4.133002,4.08E-11,,
,4.135002,4.16E-11,,
,4.137002,4.25E-11,,
,4.139002,4.31E-11,,
,4.141002,4.38E-11,,
,4.143002,4.43E-11,,
,4.145002,4.51E-11,,
,4.147002,4.59E-11,,
,4.149002,4.70E-11,,
,4.151002,4.80E-11,,
,4.153002,4.86E-11,,
,4.155002,4.90E-11,,
,4.157002,4.95E-11,,
,4.159002,5.04E-11,,
,4.161002,5.13E-11,,
,4.163002,5.23E-11,,
,4.165002,5.28E-11,,
,4.167002,5.34E-11,,
,4.169002,5.38E-11,,
,4.171002,5.42E-11,,
,4.173002,5.44E-11,,
,4.175002,5.49E-11,,
,4.177002,5.54E-11,,
,4.179002,5.60E-11,,
,4.181002,5.67E-11,,
,4.183002,5.71E-11,,
,4.185002,5.74E-11,,
,4.187002,5.75E-11,,
,4.189002,5.79E-11,,
,4.191002,5.85E-11,,
,4.193002,5.91E-11,,
,4.195002,5.97E-11,,
,4.197002,6.00E-11,,
,4.199002,6.03E-11,,
,4.201002,6.05E-11,,
,4.203002,6.07E-11,,
,4.205002,6.07E-11,,
,4.207002,6.06E-11,,
,4.209002,6.07E-11,,
,4.211002,6.10E-11,,
,4.213002,6.13E-11,,
,4.215002,6.16E-11,,
,4.217002,6.19E-11,,
,4.219002,6.19E-11,,
,4.221002,6.18E-11,,
,4.223002,6.21E-11,,
,4.225002,6.26E-11,,
,4.227002,6.31E-11,,
,4.229002,6.32E-11,,
,4.231002,6.34E-11,,
,4.233002,6.33E-11,,
,4.235002,6.30E-11,,
,4.237002,6.27E-11,,
,4.239002,6.23E-11,,
,4.241002,6.21E-11,,
,4.243002,6.21E-11,,
,4.245002,6.23E-11,,
,4.247002,6.28E-11,,
,4.249002,6.29E-11,,
,4.251002,6.27E-11,,
,4.253002,6.23E-11,,
,4.255002,6.19E-11,,
,4.257002,6.17E-11,,
,4.259002,6.15E-11,,
,4.261002,6.16E-11,,
,4.263002,6.18E-11,,
,4.265002,6.17E-11,,
,4.267002,6.16E-11,,
,4.269002,6.10E-11,,
,4.271002,6.05E-11,,
,4.273002,6.00E-11,,
,4.275002,5.99E-11,,
,4.277002,5.96E-11,,
,4.279002,5.94E-11,,
,4.281002,5.93E-11,,
,4.283002,5.92E-11,,
,4.285002,5.85E-11,,
,4.287002,5.76E-11,,
,4.289002,5.71E-11,,
,4.291002,5.68E-11,,
,4.293002,5.67E-11,,
,4.295002,5.62E-11,,
,4.297002,5.62E-11,,
,4.299002,5.59E-11,,
,4.301002,5.55E-11,,
,4.303002,5.46E-11,,
,4.305002,5.38E-11,,
,4.307002,5.32E-11,,
,4.309002,5.29E-11,,
,4.311002,5.28E-11,,
,4.313002,5.25E-11,,
,4.315002,5.25E-11,,
,4.317002,5.20E-11,,
,4.319002,5.15E-11,,
,4.321002,5.05E-11,,
,4.323002,4.99E-11,,
,4.325002,4.94E-11,,
,4.327002,4.91E-11,,
,4.329002,4.89E-11,,
,4.331002,4.89E-11,,
,4.333002,4.86E-11,,
,4.335002,4.79E-11,,
,4.337002,4.69E-11,,
,4.339002,4.60E-11,,
,4.341002,4.55E-11,,
,4.343002,4.51E-11,,
,4.345002,4.46E-11,,
,4.347002,4.46E-11,,
,4.349002,4.43E-11,,
,4.351002,4.40E-11,,
,4.353002,4.31E-11,,
,4.355002,4.26E-11,,
,4.357002,4.20E-11,,
,4.359002,4.16E-11,,
,4.361002,4.13E-11,,
,4.363002,4.12E-11,,
,4.365002,4.11E-11,,
,4.367002,4.10E-11,,
,4.369002,4.06E-11,,
,4.371002,3.98E-11,,
,4.373002,3.89E-11,,
,4.375002,3.83E-11,,
,4.377002,3.81E-11,,
,4.379002,3.81E-11,,
,4.381002,3.81E-11,,
,4.383002,3.79E-11,,
,4.385002,3.73E-11,,
,4.387002,3.68E-11,,
,4.389002,3.63E-11,,
,4.391002,3.60E-11,,
,4.393002,3.59E-11,,
,4.395002,3.58E-11,,
,4.397002,3.56E-11,,
,4.399002,3.54E-11,,
,4.401002,3.51E-11,,
,4.403002,3.48E-11,,
,4.405002,3.42E-11,,
,4.407002,3.38E-11,,
,4.409002,3.34E-11,,
,4.411002,3.31E-11,,
,4.413002,3.31E-11,,
,4.415002,3.33E-11,,
,4.417002,3.30E-11,,
,4.419002,3.26E-11,,
,4.421002,3.20E-11,,
,4.423002,3.15E-11,,
,4.425002,3.14E-11,,
,4.427002,3.16E-11,,
,4.429002,3.20E-11,,
,4.431002,3.21E-11,,
,4.433002,3.20E-11,,
,4.435002,3.16E-11,,
,4.437002,3.11E-11,,
,4.439002,3.06E-11,,
,4.441002,3.01E-11,,
,4.443002,3.00E-11,,
,4.445002,3.01E-11,,
,4.447002,3.04E-11,,
,4.449002,3.05E-11,,
,4.451002,3.01E-11,,
,4.453002,2.97E-11,,
,4.455002,2.92E-11,,
,4.457002,2.91E-11,,
,4.459002,2.91E-11,,
,4.461002,2.93E-11,,
,4.463002,2.94E-11,,
,4.465002,2.97E-11,,
,4.467002,2.96E-11,,
,4.469002,2.93E-11,,
,4.471002,2.87E-11,,
,4.473002,2.84E-11,,
,4.475002,2.83E-11,,
,4.477002,2.81E-11,,
,4.479002,2.83E-11,,
,4.481002,2.86E-11,,
,4.483002,2.90E-11,,
,4.485002,2.90E-11,,
,4.487002,2.87E-11,,
,4.489002,2.86E-11,,
,4.491002,2.86E-11,,
,4.493002,2.90E-11,,
,4.495002,2.94E-11,,
,4.497002,2.98E-11,,
,4.499002,2.99E-11,,
,4.501002,3.00E-11,,
,4.503002,2.97E-11,,
,4.505002,2.95E-11,,
,4.507002,2.93E-11,,
,4.509002,2.95E-11,,
,4.511002,2.98E-11,,
,4.513002,3.01E-11,,
,4.515002,3.07E-11,,
,4.517002,3.09E-11,,
,4.519002,3.09E-11,,
,4.521002,3.05E-11,,
,4.523002,3.05E-11,,
,4.525002,3.06E-11,,
,4.527002,3.09E-11,,
,4.529002,3.12E-11,,
,4.531002,3.15E-11,,
,4.533002,3.18E-11,,
,4.535002,3.18E-11,,
,4.537002,3.15E-11,,
,4.539002,3.13E-11,,
,4.541002,3.11E-11,,
,4.543002,3.12E-11,,
,4.545002,3.16E-11,,
,4.547002,3.22E-11,,
,4.549002,3.26E-11,,
,4.551002,3.25E-11,,
,4.553002,3.24E-11,,
,4.555002,3.22E-11,,
,4.557002,3.23E-11,,
,4.559002,3.22E-11,,
,4.561002,3.24E-11,,
,4.563002,3.27E-11,,
,4.565002,3.33E-11,,
,4.567002,3.36E-11,,
,4.569002,3.34E-11,,
,4.571002,3.30E-11,,
,4.573002,3.28E-11,,
,4.575002,3.29E-11,,
,4.577002,3.33E-11,,
,4.579002,3.37E-11,,
,4.581002,3.42E-11,,
,4.583002,3.44E-11,,
,4.585002,3.41E-11,,
,4.587002,3.37E-11,,
,4.589002,3.34E-11,,
,4.591002,3.34E-11,,
,4.593002,3.34E-11,,
,4.595002,3.37E-11,,
,4.597002,3.42E-11,,
,4.599002,3.49E-11,,
,4.601002,3.49E-11,,
,4.603002,3.48E-11,,
,4.605002,3.43E-11,,
,4.607002,3.42E-11,,
,4.609002,3.39E-11,,
,4.611002,3.41E-11,,
,4.613002,3.43E-11,,
,4.615002,3.45E-11,,
,4.617002,3.41E-11,,
,4.619002,3.37E-11,,
,4.621002,3.34E-11,,
,4.623002,3.34E-11,,
,4.625002,3.34E-11,,
,4.627002,3.36E-11,,
,4.629002,3.39E-11,,
,4.631002,3.43E-11,,
,4.633002,3.45E-11,,
,4.635002,3.44E-11,,
,4.637002,3.39E-11,,
,4.639002,3.34E-11,,
,4.641002,3.29E-11,,
,4.643002,3.29E-11,,
,4.645002,3.29E-11,,
,4.647002,3.30E-11,,
,4.649002,3.31E-11,,
,4.651002,3.30E-11,,
,4.653002,3.28E-11,,
,4.655002,3.23E-11,,
,4.657002,3.18E-11,,
,4.659002,3.14E-11,,
,4.661002,3.16E-11,,
,4.663002,3.21E-11,,
,4.665002,3.24E-11,,
,4.667002,3.22E-11,,
,4.669002,3.19E-11,,
,4.671002,3.13E-11,,
,4.673002,3.09E-11,,
,4.675002,3.05E-11,,
,4.677002,3.04E-11,,
,4.679002,3.02E-11,,
,4.681002,3.04E-11,,
,4.683002,3.02E-11,,
,4.685002,2.98E-11,,
,4.687002,2.93E-11,,
,4.689002,2.89E-11,,
,4.691002,2.86E-11,,
,4.693002,2.85E-11,,
,4.695002,2.85E-11,,
,4.697002,2.89E-11,,
,4.699002,2.90E-11,,
,4.701002,2.86E-11,,
,4.703002,2.81E-11,,
,4.705002,2.76E-11,,
,4.707002,2.72E-11,,
,4.709002,2.70E-11,,
,4.711002,2.68E-11,,
,4.713002,2.70E-11,,
,4.715002,2.69E-11,,
,4.717002,2.69E-11,,
,4.719002,2.62E-11,,
,4.721002,2.55E-11,,
,4.723002,2.49E-11,,
,4.725002,2.48E-11,,
,4.727002,2.50E-11,,
,4.729002,2.53E-11,,
,4.731002,2.56E-11,,
,4.733002,2.55E-11,,
,4.735002,2.53E-11,,
,4.737002,2.49E-11,,
,4.739002,2.43E-11,,
,4.741002,2.40E-11,,
,4.743002,2.36E-11,,
,4.745002,2.38E-11,,
,4.747002,2.37E-11,,
,4.749002,2.37E-11,,
,4.751002,2.35E-11,,
,4.753002,2.32E-11,,
,4.755002,2.28E-11,,
,4.757002,2.26E-11,,
,4.759002,2.26E-11,,
,4.761002,2.28E-11,,
,4.763002,2.31E-11,,
,4.765002,2.32E-11,,
,4.767002,2.31E-11,,
,4.769002,2.27E-11,,
,4.771002,2.24E-11,,
,4.773002,2.21E-11,,
,4.775002,2.17E-11,,
,4.777002,2.14E-11,,
,4.779002,2.13E-11,,
,4.781002,2.16E-11,,
,4.783002,2.17E-11,,
,4.785002,2.18E-11,,
,4.787002,2.16E-11,,
,4.789002,2.14E-11,,
,4.791002,2.12E-11,,
,4.793002,2.13E-11,,
,4.795002,2.14E-11,,
,4.797002,2.17E-11,,
,4.799002,2.18E-11,,
,4.801002,2.16E-11,,
,4.803002,2.12E-11,,
,4.805002,2.06E-11,,
,4.807002,2.01E-11,,
,4.809002,1.97E-11,,
,4.811002,1.98E-11,,
,4.813002,2.01E-11,,
,4.815002,2.02E-11,,
,4.817002,2.01E-11,,
,4.819002,1.97E-11,,
,4.821002,1.92E-11,,
,4.823002,1.88E-11,,
,4.825002,1.85E-11,,
,4.827002,1.85E-11,,
,4.829002,1.87E-11,,
,4.831002,1.89E-11,,
,4.833002,1.90E-11,,
,4.835002,1.87E-11,,
,4.837002,1.80E-11,,
,4.839002,1.73E-11,,
,4.841002,1.68E-11,,
,4.843002,1.65E-11,,
,4.845002,1.65E-11,,
,4.847002,1.63E-11,,
,4.849002,1.62E-11,,
,4.851002,1.58E-11,,
,4.853002,1.55E-11,,
,4.855002,1.50E-11,,
,4.857002,1.46E-11,,
,4.859002,1.41E-11,,
,4.861002,1.39E-11,,
,4.863002,1.41E-11,,
,4.865002,1.43E-11,,
,4.867002,1.41E-11,,
,4.869002,1.35E-11,,
,4.871002,1.29E-11,,
,4.873002,1.24E-11,,
,4.875002,1.20E-11,,
,4.877002,1.15E-11,,
,4.879002,1.10E-11,,
,4.881002,1.08E-11,,
,4.883002,1.08E-11,,
,4.885002,1.05E-11,,
,4.887002,9.96E-12,,
,4.889002,9.31E-12,,
,4.891002,8.99E-12,,
,4.893002,8.89E-12,,
,4.895002,8.89E-12,,
,4.897002,8.78E-12,,
,4.899002,8.56E-12,,
,4.901002,8.13E-12,,
,4.903002,7.49E-12,,
,4.905002,6.74E-12,,
,4.907002,5.99E-12,,
,4.909002,5.66E-12,,
,4.911002,5.45E-12,,
,4.913002,5.56E-12,,
,4.915002,5.24E-12,,
,4.917002,5.24E-12,,
,4.919002,4.59E-12,,
,4.921002,4.27E-12,,
,4.923002,3.73E-12,,
,4.925002,3.73E-12,,
,4.927002,3.62E-12,,
,4.929002,3.52E-12,,
,4.931002,3.52E-12,,
,4.933002,3.41E-12,,
,4.935002,2.98E-12,,
,4.937002,2.34E-12,,
,4.939002,1.59E-12,,
,4.941002,1.16E-12,,
,4.943002,8.34E-13,,
,4.945002,8.34E-13,,
,4.947002,1.05E-12,,
,4.949002,9.41E-13,,
,4.951002,6.19E-13,,
,4.953002,8.20E-14,,
,4.955002,-2.40E-13,,
,4.957002,-2.40E-13,,
,4.959002,-2.40E-13,,
,4.961002,8.20E-14,,
,4.963002,2.97E-13,,
,4.965002,6.19E-13,,
,4.967002,5.11E-13,,
,4.969002,2.97E-13,,
,4.971002,-1.33E-13,,
,4.973002,-4.55E-13,,
,4.975002,-5.62E-13,,
,4.977002,-1.33E-13,,
,4.979002,4.04E-13,,
,4.981002,9.41E-13,,
,4.983002,1.16E-12,,
,4.985002,1.37E-12,,
,4.987002,1.48E-12,,
,4.989002,1.37E-12,,
,4.991002,1.48E-12,,
,4.993002,1.91E-12,,
,4.995002,2.77E-12,,
,4.997002,3.62E-12,,
,4.999002,4.16E-12,,
,5.001002,4.48E-12,,
,5.003002,4.70E-12,,
,5.005002,5.02E-12,,
,5.007002,5.34E-12,,
,5.009002,5.88E-12,,
,5.011002,6.52E-12,,
,5.013002,7.27E-12,,
,5.015002,8.24E-12,,
,5.017002,8.89E-12,,
,5.019002,9.42E-12,,
,5.021002,9.85E-12,,
,5.023002,1.05E-11,,
,5.025002,1.14E-11,,
,5.027002,1.20E-11,,
,5.029002,1.30E-11,,
,5.031002,1.39E-11,,
,5.033002,1.49E-11,,
,5.035002,1.56E-11,,
,5.037002,1.66E-11,,
,5.039002,1.75E-11,,
,5.041002,1.81E-11,,
,5.043002,1.87E-11,,
,5.045002,1.96E-11,,
,5.047002,2.09E-11,,
,5.049002,2.21E-11,,
,5.051002,2.31E-11,,
,5.053002,2.37E-11,,
,5.055002,2.43E-11,,
,5.057002,2.52E-11,,
,5.059002,2.64E-11,,
,5.061002,2.77E-11,,
,5.063002,2.90E-11,,
,5.065002,3.00E-11,,
,5.067002,3.10E-11,,
,5.069002,3.18E-11,,
,5.071002,3.26E-11,,
,5.073002,3.34E-11,,
,5.075002,3.43E-11,,
,5.077002,3.54E-11,,
,5.079002,3.67E-11,,
,5.081002,3.80E-11,,
,5.083002,3.94E-11,,
,5.085002,4.01E-11,,
,5.087002,4.07E-11,,
,5.089002,4.11E-11,,
,5.091002,4.22E-11,,
,5.093002,4.33E-11,,
,5.095002,4.45E-11,,
,5.097002,4.58E-11,,
,5.099002,4.69E-11,,
,5.101002,4.81E-11,,
,5.103002,4.88E-11,,
,5.105002,4.94E-11,,
,5.107002,4.97E-11,,
,5.109002,5.02E-11,,
,5.111002,5.11E-11,,
,5.113002,5.23E-11,,
,5.115002,5.34E-11,,
,5.117002,5.44E-11,,
,5.119002,5.49E-11,,
,5.121002,5.54E-11,,
,5.123002,5.59E-11,,
,5.125002,5.68E-11,,
,5.127002,5.79E-11,,
,5.129002,5.92E-11,,
,5.131002,6.03E-11,,
,5.133002,6.10E-11,,
,5.135002,6.13E-11,,
,5.137002,6.16E-11,,
,5.139002,6.17E-11,,
,5.141002,6.21E-11,,
,5.143002,6.28E-11,,
,5.145002,6.36E-11,,
,5.147002,6.45E-11,,
,5.149002,6.51E-11,,
,5.151002,6.58E-11,,
,5.153002,6.60E-11,,
,5.155002,6.64E-11,,
,5.157002,6.68E-11,,
,5.159002,6.75E-11,,
,5.161002,6.83E-11,,
,5.163002,6.91E-11,,
,5.165002,7.01E-11,,
,5.167002,7.05E-11,,
,5.169002,7.09E-11,,
,5.171002,7.09E-11,,
,5.173002,7.13E-11,,
,5.175002,7.16E-11,,
,5.177002,7.21E-11,,
,5.179002,7.29E-11,,
,5.181002,7.38E-11,,
,5.183002,7.47E-11,,
,5.185002,7.50E-11,,
,5.187002,7.52E-11,,
,5.189002,7.56E-11,,
,5.191002,7.61E-11,,
,5.193002,7.66E-11,,
,5.195002,7.73E-11,,
,5.197002,7.80E-11,,
,5.199002,7.87E-11,,
,5.201002,7.91E-11,,
,5.203002,7.94E-11,,
,5.205002,7.97E-11,,
,5.207002,8.01E-11,,
,5.209002,8.07E-11,,
,5.211002,8.11E-11,,
,5.213002,8.19E-11,,
,5.215002,8.26E-11,,
,5.217002,8.34E-11,,
,5.219002,8.36E-11,,
,5.221002,8.37E-11,,
,5.223002,8.40E-11,,
,5.225002,8.45E-11,,
,5.227002,8.48E-11,,
,5.229002,8.53E-11,,
,5.231002,8.62E-11,,
,5.233002,8.69E-11,,
,5.235002,8.74E-11,,
,5.237002,8.75E-11,,
,5.239002,8.77E-11,,
,5.241002,8.80E-11,,
,5.243002,8.84E-11,,
,5.245002,8.89E-11,,
,5.247002,8.95E-11,,
,5.249002,9.04E-11,,
,5.251002,9.08E-11,,
,5.253002,9.10E-11,,
,5.255002,9.11E-11,,
,5.257002,9.15E-11,,
,5.259002,9.22E-11,,
,5.261002,9.27E-11,,
,5.263002,9.34E-11,,
,5.265002,9.39E-11,,
,5.267002,9.43E-11,,
,5.269002,9.43E-11,,
,5.271002,9.44E-11,,
,5.273002,9.43E-11,,
,5.275002,9.48E-11,,
,5.277002,9.50E-11,,
,5.279002,9.57E-11,,
,5.281002,9.64E-11,,
,5.283002,9.70E-11,,
,5.285002,9.72E-11,,
,5.287002,9.72E-11,,
,5.289002,9.75E-11,,
,5.291002,9.78E-11,,
,5.293002,9.83E-11,,
,5.295002,9.87E-11,,
,5.297002,9.94E-11,,
,5.299002,9.99E-11,,
,5.301002,1.00E-10,,
,5.303002,1.00E-10,,
,5.305002,9.98E-11,,
,5.307002,1.00E-10,,
,5.309002,1.00E-10,,
,5.311002,1.01E-10,,
,5.313002,1.01E-10,,
,5.315002,1.01E-10,,
,5.317002,1.02E-10,,
,5.319002,1.02E-10,,
,5.321002,1.01E-10,,
,5.323002,1.01E-10,,
,5.325002,1.01E-10,,
,5.327002,1.02E-10,,
,5.329002,1.02E-10,,
,5.331002,1.02E-10,,
,5.333002,1.02E-10,,
,5.335002,1.02E-10,,
,5.337002,1.02E-10,,
,5.339002,1.02E-10,,
,5.341002,1.01E-10,,
,5.343002,1.01E-10,,
,5.345002,1.01E-10,,
,5.347002,1.01E-10,,
,5.349002,1.01E-10,,
,5.351002,1.01E-10,,
,5.353002,1.00E-10,,
,5.355002,9.96E-11,,
,5.357002,9.92E-11,,
,5.359002,9.92E-11,,
,5.361002,9.93E-11,,
,5.363002,9.94E-11,,
,5.365002,9.92E-11,,
,5.367002,9.88E-11,,
,5.369002,9.83E-11,,
,5.371002,9.76E-11,,
,5.373002,9.68E-11,,
,5.375002,9.61E-11,,
,5.377002,9.55E-11,,
,5.379002,9.51E-11,,
,5.381002,9.47E-11,,
,5.383002,9.39E-11,,
,5.385002,9.31E-11,,
,5.387002,9.22E-11,,
,5.389002,9.15E-11,,
,5.391002,9.07E-11,,
,5.393002,9.02E-11,,
,5.395002,8.98E-11,,
,5.397002,8.96E-11,,
,5.399002,8.93E-11,,
,5.401002,8.83E-11,,
,5.403002,8.74E-11,,
,5.405002,8.61E-11,,
,5.407002,8.49E-11,,
,5.409002,8.38E-11,,
,5.411002,8.30E-11,,
,5.413002,8.22E-11,,
,5.415002,8.15E-11,,
,5.417002,8.06E-11,,
,5.419002,7.95E-11,,
,5.421002,7.83E-11,,
,5.423002,7.71E-11,,
,5.425002,7.63E-11,,
,5.427002,7.54E-11,,
,5.429002,7.49E-11,,
,5.431002,7.44E-11,,
,5.433002,7.37E-11,,
,5.435002,7.30E-11,,
,5.437002,7.15E-11,,
,5.439002,7.01E-11,,
,5.441002,6.87E-11,,
,5.443002,6.75E-11,,
,5.445002,6.65E-11,,
,5.447002,6.56E-11,,
,5.449002,6.48E-11,,
,5.451002,6.40E-11,,
,5.453002,6.28E-11,,
,5.455002,6.16E-11,,
,5.457002,6.04E-11,,
,5.459002,5.94E-11,,
,5.461002,5.87E-11,,
,5.463002,5.81E-11,,
,5.465002,5.76E-11,,
,5.467002,5.68E-11,,
,5.469002,5.56E-11,,
,5.471002,5.41E-11,,
,5.473002,5.29E-11,,
,5.475002,5.18E-11,,
,5.477002,5.10E-11,,
,5.479002,5.02E-11,,
,5.481002,4.94E-11,,
,5.483002,4.87E-11,,
,5.485002,4.75E-11,,
,5.487002,4.66E-11,,
,5.489002,4.53E-11,,
,5.491002,4.44E-11,,
,5.493002,4.37E-11,,
,5.495002,4.31E-11,,
,5.497002,4.25E-11,,
,5.499002,4.17E-11,,
,5.501002,4.09E-11,,
,5.503002,3.97E-11,,
,5.505002,3.86E-11,,
,5.507002,3.75E-11,,
,5.509002,3.69E-11,,
,5.511002,3.65E-11,,
,5.513002,3.63E-11,,
,5.515002,3.59E-11,,
,5.517002,3.56E-11,,
,5.519002,3.47E-11,,
,5.521002,3.37E-11,,
,5.523002,3.26E-11,,
,5.525002,3.22E-11,,
,5.527002,3.22E-11,,
,5.529002,3.22E-11,,
,5.531002,3.23E-11,,
,5.533002,3.21E-11,,
,5.535002,3.18E-11,,
,5.537002,3.11E-11,,
,5.539002,3.05E-11,,
,5.541002,3.00E-11,,
,5.543002,3.00E-11,,
,5.545002,3.00E-11,,
,5.547002,3.00E-11,,
,5.549002,2.99E-11,,
,5.551002,2.97E-11,,
,5.553002,2.96E-11,,
,5.555002,2.92E-11,,
,5.557002,2.93E-11,,
,5.559002,2.92E-11,,
,5.561002,2.95E-11,,
,5.563002,2.97E-11,,
,5.565002,3.01E-11,,
,5.567002,3.02E-11,,
,5.569002,3.01E-11,,
,5.571002,2.99E-11,,
,5.573002,2.97E-11,,
,5.575002,2.94E-11,,
,5.577002,2.93E-11,,
,5.579002,2.95E-11,,
,5.581002,3.00E-11,,
,5.583002,3.05E-11,,
,5.585002,3.04E-11,,
,5.587002,3.01E-11,,
,5.589002,2.97E-11,,
,5.591002,2.98E-11,,
,5.593002,2.99E-11,,
,5.595002,3.02E-11,,
,5.597002,3.06E-11,,
,5.599002,3.08E-11,,
,5.601002,3.08E-11,,
,5.603002,3.06E-11,,
,5.605002,3.01E-11,,
,5.607002,2.99E-11,,
,5.609002,2.96E-11,,
,5.611002,2.97E-11,,
,5.613002,2.97E-11,,
,5.615002,2.99E-11,,
,5.617002,2.99E-11,,
,5.619002,2.96E-11,,
,5.621002,2.93E-11,,
,5.623002,2.90E-11,,
,5.625002,2.91E-11,,
,5.627002,2.91E-11,,
,5.629002,2.94E-11,,
,5.631002,2.95E-11,,
,5.633002,2.95E-11,,
,5.635002,2.90E-11,,
,5.637002,2.84E-11,,
,5.639002,2.78E-11,,
,5.641002,2.74E-11,,
,5.643002,2.71E-11,,
,5.645002,2.72E-11,,
,5.647002,2.74E-11,,
,5.649002,2.74E-11,,
,5.651002,2.70E-11,,
,5.653002,2.68E-11,,
,5.655002,2.62E-11,,
,5.657002,2.58E-11,,
,5.659002,2.55E-11,,
,5.661002,2.56E-11,,
,5.663002,2.53E-11,,
,5.665002,2.52E-11,,
,5.667002,2.49E-11,,
,5.669002,2.46E-11,,
,5.671002,2.39E-11,,
,5.673002,2.31E-11,,
,5.675002,2.26E-11,,
,5.677002,2.22E-11,,
,5.679002,2.22E-11,,
,5.681002,2.20E-11,,
,5.683002,2.18E-11,,
,5.685002,2.11E-11,,
,5.687002,2.04E-11,,
,5.689002,1.95E-11,,
,5.691002,1.93E-11,,
,5.693002,1.91E-11,,
,5.695002,1.91E-11,,
,5.697002,1.87E-11,,
,5.699002,1.84E-11,,
,5.701002,1.80E-11,,
,5.703002,1.75E-11,,
,5.705002,1.67E-11,,
,5.707002,1.59E-11,,
,5.709002,1.54E-11,,
,5.711002,1.51E-11,,
,5.713002,1.52E-11,,
,5.715002,1.50E-11,,
,5.717002,1.49E-11,,
,5.719002,1.45E-11,,
,5.721002,1.38E-11,,
,5.723002,1.31E-11,,
,5.725002,1.26E-11,,
,5.727002,1.24E-11,,
,5.729002,1.24E-11,,
,5.731002,1.24E-11,,
,5.733002,1.24E-11,,
,5.735002,1.21E-11,,
,5.737002,1.17E-11,,
,5.739002,1.12E-11,,
,5.741002,1.09E-11,,
,5.743002,1.08E-11,,
,5.745002,1.10E-11,,
,5.747002,1.11E-11,,
,5.749002,1.10E-11,,
,5.751002,1.09E-11,,
,5.753002,1.07E-11,,
,5.755002,1.05E-11,,
,5.757002,1.02E-11,,
,5.759002,1.02E-11,,
,5.761002,1.03E-11,,
,5.763002,1.06E-11,,
,5.765002,1.08E-11,,
,5.767002,1.09E-11,,
,5.769002,1.07E-11,,
,5.771002,1.04E-11,,
,5.773002,1.01E-11,,
,5.775002,9.74E-12,,
,5.777002,9.96E-12,,
,5.779002,1.01E-11,,
,5.781002,1.04E-11,,
,5.783002,1.05E-11,,
,5.785002,1.04E-11,,
,5.787002,9.96E-12,,
,5.789002,9.53E-12,,
,5.791002,9.42E-12,,
,5.793002,9.74E-12,,
,5.795002,1.02E-11,,
,5.797002,1.07E-11,,
,5.799002,1.08E-11,,
,5.801002,1.07E-11,,
,5.803002,1.05E-11,,
,5.805002,1.05E-11,,
,5.807002,1.06E-11,,
,5.809002,1.05E-11,,
,5.811002,1.08E-11,,
,5.813002,1.10E-11,,
,5.815002,1.16E-11,,
,5.817002,1.16E-11,,
,5.819002,1.16E-11,,
,5.821002,1.16E-11,,
,5.823002,1.15E-11,,
,5.825002,1.16E-11,,
,5.827002,1.19E-11,,
,5.829002,1.25E-11,,
,5.831002,1.30E-11,,
,5.833002,1.30E-11,,
,5.835002,1.30E-11,,
,5.837002,1.29E-11,,
,5.839002,1.28E-11,,
,5.841002,1.25E-11,,
,5.843002,1.26E-11,,
,5.845002,1.31E-11,,
,5.847002,1.36E-11,,
,5.849002,1.37E-11,,
,5.851002,1.38E-11,,
,5.853002,1.36E-11,,
,5.855002,1.35E-11,,
,5.857002,1.33E-11,,
,5.859002,1.32E-11,,
,5.861002,1.35E-11,,
,5.863002,1.37E-11,,
,5.865002,1.41E-11,,
,5.867002,1.44E-11,,
,5.869002,1.41E-11,,
,5.871002,1.37E-11,,
,5.873002,1.30E-11,,
,5.875002,1.28E-11,,
,5.877002,1.30E-11,,
,5.879002,1.33E-11,,
,5.881002,1.36E-11,,
,5.883002,1.35E-11,,
,5.885002,1.32E-11,,
,5.887002,1.28E-11,,
,5.889002,1.25E-11,,
,5.891002,1.25E-11,,
,5.893002,1.25E-11,,
,5.895002,1.25E-11,,
,5.897002,1.26E-11,,
,5.899002,1.28E-11,,
,5.901002,1.24E-11,,
,5.903002,1.20E-11,,
,5.905002,1.16E-11,,
,5.907002,1.15E-11,,
,5.909002,1.15E-11,,
,5.911002,1.16E-11,,
,5.913002,1.16E-11,,
,5.915002,1.17E-11,,
,5.917002,1.16E-11,,
,5.919002,1.16E-11,,
,5.921002,1.11E-11,,
,5.923002,1.07E-11,,
,5.925002,1.05E-11,,
,5.927002,1.07E-11,,
,5.929002,1.10E-11,,
,5.931002,1.12E-11,,
,5.933002,1.14E-11,,
,5.935002,1.15E-11,,
,5.937002,1.11E-11,,
,5.939002,1.06E-11,,
,5.941002,1.04E-11,,
,5.943002,1.03E-11,,
,5.945002,1.08E-11,,
,5.947002,1.10E-11,,
,5.949002,1.15E-11,,
,5.951002,1.12E-11,,
,5.953002,1.12E-11,,
,5.955002,1.11E-11,,
,5.957002,1.12E-11,,
,5.959002,1.12E-11,,
,5.961002,1.14E-11,,
,5.963002,1.19E-11,,
,5.965002,1.24E-11,,
,5.967002,1.29E-11,,
,5.969002,1.28E-11,,
,5.971002,1.25E-11,,
,5.973002,1.24E-11,,
,5.975002,1.23E-11,,
,5.977002,1.26E-11,,
,5.979002,1.29E-11,,
,5.981002,1.34E-11,,
,5.983002,1.35E-11,,
,5.985002,1.36E-11,,
,5.987002,1.35E-11,,
,5.989002,1.35E-11,,
,5.991002,1.37E-11,,
,5.993002,1.40E-11,,
,5.995002,1.44E-11,,
,5.997002,1.48E-11,,
,5.999002,1.51E-11,,
,6.001002,1.53E-11,,
,6.003002,1.53E-11,,
,6.005002,1.56E-11,,
,6.007002,1.59E-11,,
,6.009002,1.62E-11,,
,6.011002,1.63E-11,,
,6.013002,1.66E-11,,
,6.015002,1.70E-11,,
,6.017002,1.74E-11,,
,6.019002,1.76E-11,,
,6.021002,1.75E-11,,
,6.023002,1.74E-11,,
,6.025002,1.74E-11,,
,6.027002,1.76E-11,,
,6.029002,1.80E-11,,
,6.031002,1.84E-11,,
,6.033002,1.88E-11,,
,6.035002,1.89E-11,,
,6.037002,1.90E-11,,
,6.039002,1.89E-11,,
,6.041002,1.88E-11,,
,6.043002,1.89E-11,,
,6.045002,1.93E-11,,
,6.047002,1.98E-11,,
,6.049002,2.01E-11,,
,6.051002,2.02E-11,,
,6.053002,1.99E-11,,
,6.055002,1.99E-11,,
,6.057002,2.01E-11,,
,6.059002,2.05E-11,,
,6.061002,2.06E-11,,
,6.063002,2.09E-11,,
,6.065002,2.09E-11,,
,6.067002,2.10E-11,,
,6.069002,2.08E-11,,
,6.071002,2.08E-11,,
,6.073002,2.06E-11,,
,6.075002,2.05E-11,,
,6.077002,2.06E-11,,
,6.079002,2.09E-11,,
,6.081002,2.13E-11,,
,6.083002,2.13E-11,,
,6.085002,2.13E-11,,
,6.087002,2.10E-11,,
,6.089002,2.06E-11,,
,6.091002,2.04E-11,,
,6.093002,2.03E-11,,
,6.095002,2.05E-11,,
,6.097002,2.06E-11,,
,6.099002,2.06E-11,,
,6.101002,2.06E-11,,
,6.103002,2.02E-11,,
,6.105002,1.97E-11,,
,6.107002,1.91E-11,,
,6.109002,1.90E-11,,
,6.111002,1.91E-11,,
,6.113002,1.95E-11,,
,6.115002,1.97E-11,,
,6.117002,1.97E-11,,
,6.119002,1.94E-11,,
,6.121002,1.90E-11,,
,6.123002,1.84E-11,,
,6.125002,1.80E-11,,
,6.127002,1.78E-11,,
,6.129002,1.80E-11,,
,6.131002,1.83E-11,,
,6.133002,1.82E-11,,
,6.135002,1.78E-11,,
,6.137002,1.74E-11,,
,6.139002,1.70E-11,,
,6.141002,1.67E-11,,
,6.143002,1.65E-11,,
,6.145002,1.64E-11,,
,6.147002,1.66E-11,,
,6.149002,1.65E-11,,
,6.151002,1.63E-11,,
,6.153002,1.55E-11,,
,6.155002,1.50E-11,,
,6.157002,1.46E-11,,
,6.159002,1.45E-11,,
,6.161002,1.46E-11,,
,6.163002,1.47E-11,,
,6.165002,1.48E-11,,
,6.167002,1.45E-11,,
,6.169002,1.41E-11,,
,6.171002,1.36E-11,,
,6.173002,1.31E-11,,
,6.175002,1.26E-11,,
,6.177002,1.24E-11,,
,6.179002,1.25E-11,,
,6.181002,1.26E-11,,
,6.183002,1.25E-11,,
,6.185002,1.22E-11,,
,6.187002,1.19E-11,,
,6.189002,1.17E-11,,
,6.191002,1.16E-11,,
,6.193002,1.15E-11,,
,6.195002,1.16E-11,,
,6.197002,1.17E-11,,
,6.199002,1.18E-11,,
,6.201002,1.17E-11,,
,6.203002,1.12E-11,,
,6.205002,1.07E-11,,
,6.207002,1.02E-11,,
,6.209002,1.01E-11,,
,6.211002,1.03E-11,,
,6.213002,1.06E-11,,
,6.215002,1.09E-11,,
,6.217002,1.08E-11,,
,6.219002,1.06E-11,,
,6.221002,1.01E-11,,
,6.223002,9.96E-12,,
,6.225002,9.85E-12,,
,6.227002,1.02E-11,,
,6.229002,1.04E-11,,
,6.231002,1.08E-11,,
,6.233002,1.08E-11,,
,6.235002,1.06E-11,,
,6.237002,9.96E-12,,
,6.239002,9.53E-12,,
,6.241002,9.21E-12,,
,6.243002,9.31E-12,,
,6.245002,9.64E-12,,
,6.247002,9.96E-12,,
,6.249002,9.96E-12,,
,6.251002,9.96E-12,,
,6.253002,9.74E-12,,
,6.255002,9.74E-12,,
,6.257002,9.74E-12,,
,6.259002,9.85E-12,,
,6.261002,1.01E-11,,
,6.263002,1.02E-11,,
,6.265002,1.06E-11,,
,6.267002,1.07E-11,,
,6.269002,1.08E-11,,
,6.271002,1.05E-11,,
,6.273002,1.03E-11,,
,6.275002,1.01E-11,,
,6.277002,1.01E-11,,
,6.279002,1.02E-11,,
,6.281002,1.05E-11,,
,6.283002,1.08E-11,,
,6.285002,1.09E-11,,
,6.287002,1.06E-11,,
,6.289002,1.03E-11,,
,6.291002,1.02E-11,,
,6.293002,1.03E-11,,
,6.295002,1.05E-11,,
,6.297002,1.06E-11,,
,6.299002,1.07E-11,,
,6.301002,1.06E-11,,
,6.303002,1.04E-11,,
,6.305002,9.96E-12,,
,6.307002,9.64E-12,,
,6.309002,9.64E-12,,
,6.311002,9.85E-12,,
,6.313002,1.02E-11,,
,6.315002,1.04E-11,,
,6.317002,1.04E-11,,
,6.319002,1.01E-11,,
,6.321002,9.42E-12,,
,6.323002,8.89E-12,,
,6.325002,8.67E-12,,
,6.327002,8.67E-12,,
,6.329002,8.78E-12,,
,6.331002,8.67E-12,,
,6.333002,8.67E-12,,
,6.335002,8.46E-12,,
,6.337002,7.92E-12,,
,6.339002,7.38E-12,,
,6.341002,6.85E-12,,
,6.343002,6.74E-12,,
,6.345002,6.85E-12,,
,6.347002,6.95E-12,,
,6.349002,6.95E-12,,
,6.351002,6.63E-12,,
,6.353002,5.99E-12,,
,6.355002,5.56E-12,,
,6.357002,5.13E-12,,
,6.359002,5.13E-12,,
,6.361002,5.13E-12,,
,6.363002,5.13E-12,,
,6.365002,5.24E-12,,
,6.367002,5.13E-12,,
,6.369002,4.91E-12,,
,6.371002,4.59E-12,,
,6.373002,4.16E-12,,
,6.375002,3.73E-12,,
,6.377002,3.52E-12,,
,6.379002,3.62E-12,,
,6.381002,4.05E-12,,
,6.383002,4.27E-12,,
,6.385002,4.05E-12,,
,6.387002,3.52E-12,,
,6.389002,2.87E-12,,
,6.391002,2.66E-12,,
,6.393002,2.66E-12,,
,6.395002,2.87E-12,,
,6.397002,2.87E-12,,
,6.399002,3.09E-12,,
,6.401002,2.98E-12,,
,6.403002,2.87E-12,,
,6.405002,2.34E-12,,
,6.407002,2.23E-12,,
,6.409002,2.34E-12,,
,6.411002,2.66E-12,,
,6.413002,2.87E-12,,
,6.415002,2.98E-12,,
,6.417002,3.09E-12,,
,6.419002,2.98E-12,,
,6.421002,2.44E-12,,
,6.423002,1.91E-12,,
,6.425002,1.48E-12,,
,6.427002,1.59E-12,,
,6.429002,1.91E-12,,
,6.431002,2.55E-12,,
,6.433002,2.98E-12,,
,6.435002,2.87E-12,,
,6.437002,2.23E-12,,
,6.439002,1.80E-12,,
,6.441002,1.59E-12,,
,6.443002,1.48E-12,,
,6.445002,1.26E-12,,
,6.447002,1.48E-12,,
,6.449002,1.80E-12,,
,6.451002,1.69E-12,,
,6.453002,1.16E-12,,
,6.455002,4.04E-13,,
,6.457002,1.89E-13,,
,6.459002,1.89E-13,,
,6.461002,2.97E-13,,
,6.463002,4.04E-13,,
,6.465002,5.11E-13,,
,6.467002,4.04E-13,,
,6.469002,2.97E-13,,
,6.471002,-3.47E-13,,
,6.473002,-8.84E-13,,
,6.475002,-1.31E-12,,
,6.477002,-1.31E-12,,
,6.479002,-1.21E-12,,
,6.481002,-1.21E-12,,
,6.483002,-1.31E-12,,
,6.485002,-1.53E-12,,
,6.487002,-1.96E-12,,
,6.489002,-2.39E-12,,
,6.491002,-2.71E-12,,
,6.493002,-2.82E-12,,
,6.495002,-3.03E-12,,
,6.497002,-2.71E-12,,
,6.499002,-2.71E-12,,
,6.501002,-2.92E-12,,
,6.503002,-3.78E-12,,
,6.505002,-4.53E-12,,
,6.507002,-4.75E-12,,
,6.509002,-4.96E-12,,
,6.511002,-4.96E-12,,
,6.513002,-5.18E-12,,
,6.515002,-5.18E-12,,
,6.517002,-5.29E-12,,
,6.519002,-5.72E-12,,
,6.521002,-6.25E-12,,
,6.523002,-7.11E-12,,
,6.525002,-7.33E-12,,
,6.527002,-7.33E-12,,
,6.529002,-7.00E-12,,
,6.531002,-6.90E-12,,
,6.533002,-7.33E-12,,
,6.535002,-7.75E-12,,
,6.537002,-8.61E-12,,
,6.539002,-9.04E-12,,
,6.541002,-9.37E-12,,
,6.543002,-9.47E-12,,
,6.545002,-9.37E-12,,
,6.547002,-9.58E-12,,
,6.549002,-9.58E-12,,
,6.551002,-9.90E-12,,
,6.553002,-1.04E-11,,
,6.555002,-1.10E-11,,
,6.557002,-1.16E-11,,
,6.559002,-1.18E-11,,
,6.561002,-1.19E-11,,
,6.563002,-1.18E-11,,
,6.565002,-1.17E-11,,
,6.567002,-1.18E-11,,
,6.569002,-1.23E-11,,
,6.571002,-1.27E-11,,
,6.573002,-1.31E-11,,
,6.575002,-1.33E-11,,
,6.577002,-1.36E-11,,
,6.579002,-1.36E-11,,
,6.581002,-1.36E-11,,
,6.583002,-1.37E-11,,
,6.585002,-1.40E-11,,
,6.587002,-1.44E-11,,
,6.589002,-1.48E-11,,
,6.591002,-1.49E-11,,
,6.593002,-1.48E-11,,
,6.595002,-1.48E-11,,
,6.597002,-1.46E-11,,
,6.599002,-1.46E-11,,
,6.601002,-1.44E-11,,
,6.603002,-1.47E-11,,
,6.605002,-1.49E-11,,
,6.607002,-1.52E-11,,
,6.609002,-1.53E-11,,
,6.611002,-1.54E-11,,
,6.613002,-1.54E-11,,
,6.615002,-1.52E-11,,
,6.617002,-1.52E-11,,
,6.619002,-1.54E-11,,
,6.621002,-1.59E-11,,
,6.623002,-1.62E-11,,
,6.625002,-1.63E-11,,
,6.627002,-1.61E-11,,
,6.629002,-1.56E-11,,
,6.631002,-1.52E-11,,
,6.633002,-1.49E-11,,
,6.635002,-1.51E-11,,
,6.637002,-1.54E-11,,
,6.639002,-1.57E-11,,
,6.641002,-1.60E-11,,
,6.643002,-1.62E-11,,
,6.645002,-1.63E-11,,
,6.647002,-1.61E-11,,
,6.649002,-1.57E-11,,
,6.651002,-1.58E-11,,
,6.653002,-1.59E-11,,
,6.655002,-1.62E-11,,
,6.657002,-1.62E-11,,
,6.659002,-1.66E-11,,
,6.661002,-1.66E-11,,
,6.663002,-1.63E-11,,
,6.665002,-1.58E-11,,
,6.667002,-1.56E-11,,
,6.669002,-1.57E-11,,
,6.671002,-1.60E-11,,
,6.673002,-1.62E-11,,
,6.675002,-1.63E-11,,
,6.677002,-1.67E-11,,
,6.679002,-1.67E-11,,
,6.681002,-1.63E-11,,
,6.683002,-1.59E-11,,
,6.685002,-1.60E-11,,
,6.687002,-1.65E-11,,
,6.689002,-1.68E-11,,
,6.691002,-1.69E-11,,
,6.693002,-1.69E-11,,
,6.695002,-1.66E-11,,
,6.697002,-1.62E-11,,
,6.699002,-1.59E-11,,
,6.701002,-1.58E-11,,
,6.703002,-1.59E-11,,
,6.705002,-1.60E-11,,
,6.707002,-1.62E-11,,
,6.709002,-1.61E-11,,
,6.711002,-1.57E-11,,
,6.713002,-1.54E-11,,
,6.715002,-1.49E-11,,
,6.717002,-1.49E-11,,
,6.719002,-1.49E-11,,
,6.721002,-1.52E-11,,
,6.723002,-1.56E-11,,
,6.725002,-1.57E-11,,
,6.727002,-1.57E-11,,
,6.729002,-1.51E-11,,
,6.731002,-1.46E-11,,
,6.733002,-1.42E-11,,
,6.735002,-1.43E-11,,
,6.737002,-1.45E-11,,
,6.739002,-1.46E-11,,
,6.741002,-1.43E-11,,
,6.743002,-1.39E-11,,
,6.745002,-1.37E-11,,
,6.747002,-1.36E-11,,
,6.749002,-1.33E-11,,
,6.751002,-1.32E-11,,
,6.753002,-1.34E-11,,
,6.755002,-1.37E-11,,
,6.757002,-1.37E-11,,
,6.759002,-1.36E-11,,
,6.761002,-1.33E-11,,
,6.763002,-1.30E-11,,
,6.765002,-1.25E-11,,
,6.767002,-1.20E-11,,
,6.769002,-1.18E-11,,
,6.771002,-1.18E-11,,
,6.773002,-1.19E-11,,
,6.775002,-1.22E-11,,
,6.777002,-1.22E-11,,
,6.779002,-1.18E-11,,
,6.781002,-1.15E-11,,
,6.783002,-1.12E-11,,
,6.785002,-1.12E-11,,
,6.787002,-1.13E-11,,
,6.789002,-1.14E-11,,
,6.791002,-1.16E-11,,
,6.793002,-1.14E-11,,
,6.795002,-1.11E-11,,
,6.797002,-1.08E-11,,
,6.799002,-1.03E-11,,
,6.801002,-1.02E-11,,
,6.803002,-1.01E-11,,
,6.805002,-1.02E-11,,
,6.807002,-1.03E-11,,
,6.809002,-1.01E-11,,
,6.811002,-1.00E-11,,
,6.813002,-9.58E-12,,
,6.815002,-9.37E-12,,
,6.817002,-9.37E-12,,
,6.819002,-9.69E-12,,
,6.821002,-1.01E-11,,
,6.823002,-1.02E-11,,
,6.825002,-1.01E-11,,
,6.827002,-9.69E-12,,
,6.829002,-9.37E-12,,
,6.831002,-8.94E-12,,
,6.833002,-8.61E-12,,
,6.835002,-8.51E-12,,
,6.837002,-8.61E-12,,
,6.839002,-9.04E-12,,
,6.841002,-9.26E-12,,
,6.843002,-9.37E-12,,
,6.845002,-9.15E-12,,
,6.847002,-8.72E-12,,
,6.849002,-8.51E-12,,
,6.851002,-8.61E-12,,
,6.853002,-8.83E-12,,
,6.855002,-9.15E-12,,
,6.857002,-9.26E-12,,
,6.859002,-9.37E-12,,
,6.861002,-9.26E-12,,
,6.863002,-8.94E-12,,
,6.865002,-8.51E-12,,
,6.867002,-8.29E-12,,
,6.869002,-8.40E-12,,
,6.871002,-9.04E-12,,
,6.873002,-9.15E-12,,
,6.875002,-9.47E-12,,
,6.877002,-9.37E-12,,
,6.879002,-9.47E-12,,
,6.881002,-9.26E-12,,
,6.883002,-9.04E-12,,
,6.885002,-9.15E-12,,
,6.887002,-9.37E-12,,
,6.889002,-9.79E-12,,
,6.891002,-1.00E-11,,
,6.893002,-1.00E-11,,
,6.895002,-9.90E-12,,
,6.897002,-9.69E-12,,
,6.899002,-9.58E-12,,
,6.901002,-9.79E-12,,
,6.903002,-1.01E-11,,
,6.905002,-1.04E-11,,
,6.907002,-1.09E-11,,
,6.909002,-1.11E-11,,
,6.911002,-1.13E-11,,
,6.913002,-1.11E-11,,
,6.915002,-1.10E-11,,
,6.917002,-1.10E-11,,
,6.919002,-1.13E-11,,
,6.921002,-1.18E-11,,
,6.923002,-1.27E-11,,
,6.925002,-1.29E-11,,
,6.927002,-1.33E-11,,
,6.929002,-1.29E-11,,
,6.931002,-1.29E-11,,
,6.933002,-1.27E-11,,
,6.935002,-1.31E-11,,
,6.937002,-1.38E-11,,
,6.939002,-1.43E-11,,
,6.941002,-1.48E-11,,
,6.943002,-1.52E-11,,
,6.945002,-1.55E-11,,
,6.947002,-1.56E-11,,
,6.949002,-1.55E-11,,
,6.951002,-1.55E-11,,
,6.953002,-1.58E-11,,
,6.955002,-1.62E-11,,
,6.957002,-1.71E-11,,
,6.959002,-1.75E-11,,
,6.961002,-1.80E-11,,
,6.963002,-1.77E-11,,
,6.965002,-1.77E-11,,
,6.967002,-1.78E-11,,
,6.969002,-1.85E-11,,
,6.971002,-1.91E-11,,
,6.973002,-1.99E-11,,
,6.975002,-2.03E-11,,
,6.977002,-2.05E-11,,
,6.979002,-2.04E-11,,
,6.981002,-2.04E-11,,
,6.983002,-2.05E-11,,
,6.985002,-2.09E-11,,
,6.987002,-2.12E-11,,
,6.989002,-2.15E-11,,
,6.991002,-2.19E-11,,
,6.993002,-2.21E-11,,
,6.995002,-2.25E-11,,
,6.997002,-2.26E-11,,
,6.999002,-2.27E-11,,
,7.001002,-2.28E-11,,
,7.003002,-2.32E-11,,
,7.005002,-2.36E-11,,
,7.007002,-2.41E-11,,
,7.009002,-2.43E-11,,
,7.011002,-2.44E-11,,
,7.013002,-2.45E-11,,
,7.015002,-2.45E-11,,
,7.017002,-2.48E-11,,
,7.019002,-2.51E-11,,
,7.021002,-2.55E-11,,
,7.023002,-2.58E-11,,
,7.025002,-2.59E-11,,
,7.027002,-2.60E-11,,
,7.029002,-2.58E-11,,
,7.031002,-2.59E-11,,
,7.033002,-2.60E-11,,
,7.035002,-2.63E-11,,
,7.037002,-2.65E-11,,
,7.039002,-2.68E-11,,
,7.041002,-2.72E-11,,
,7.043002,-2.72E-11,,
,7.045002,-2.70E-11,,
,7.047002,-2.65E-11,,
,7.049002,-2.65E-11,,
,7.051002,-2.65E-11,,
,7.053002,-2.69E-11,,
,7.055002,-2.73E-11,,
,7.057002,-2.76E-11,,
,7.059002,-2.73E-11,,
,7.061002,-2.68E-11,,
,7.063002,-2.64E-11,,
,7.065002,-2.61E-11,,
,7.067002,-2.58E-11,,
,7.069002,-2.60E-11,,
,7.071002,-2.64E-11,,
,7.073002,-2.68E-11,,
,7.075002,-2.65E-11,,
,7.077002,-2.62E-11,,
,7.079002,-2.58E-11,,
,7.081002,-2.54E-11,,
,7.083002,-2.49E-11,,
,7.085002,-2.47E-11,,
,7.087002,-2.47E-11,,
,7.089002,-2.48E-11,,
,7.091002,-2.48E-11,,
,7.093002,-2.47E-11,,
,7.095002,-2.43E-11,,
,7.097002,-2.39E-11,,
,7.099002,-2.33E-11,,
,7.101002,-2.31E-11,,
,7.103002,-2.29E-11,,
,7.105002,-2.28E-11,,
,7.107002,-2.27E-11,,
,7.109002,-2.25E-11,,
,7.111002,-2.24E-11,,
,7.113002,-2.20E-11,,
,7.115002,-2.18E-11,,
,7.117002,-2.14E-11,,
,7.119002,-2.14E-11,,
,7.121002,-2.15E-11,,
,7.123002,-2.16E-11,,
,7.125002,-2.14E-11,,
,7.127002,-2.10E-11,,
,7.129002,-2.05E-11,,
,7.131002,-2.01E-11,,
,7.133002,-1.99E-11,,
,7.135002,-1.99E-11,,
,7.137002,-2.01E-11,,
,7.139002,-2.04E-11,,
,7.141002,-2.06E-11,,
,7.143002,-2.06E-11,,
,7.145002,-2.04E-11,,
,7.147002,-2.03E-11,,
,7.149002,-2.03E-11,,
,7.151002,-2.05E-11,,
,7.153002,-2.09E-11,,
,7.155002,-2.14E-11,,
,7.157002,-2.17E-11,,
,7.159002,-2.17E-11,,
,7.161002,-2.15E-11,,
,7.163002,-2.14E-11,,
,7.165002,-2.14E-11,,
,7.167002,-2.15E-11,,
,7.169002,-2.20E-11,,
,7.171002,-2.26E-11,,
,7.173002,-2.32E-11,,
,7.175002,-2.36E-11,,
,7.177002,-2.41E-11,,
,7.179002,-2.45E-11,,
,7.181002,-2.47E-11,,
,7.183002,-2.48E-11,,
,7.185002,-2.50E-11,,
,7.187002,-2.55E-11,,
,7.189002,-2.64E-11,,
,7.191002,-2.74E-11,,
,7.193002,-2.80E-11,,
,7.195002,-2.82E-11,,
,7.197002,-2.82E-11,,
,7.199002,-2.86E-11,,
,7.201002,-2.91E-11,,
,7.203002,-2.97E-11,,
,7.205002,-3.02E-11,,
,7.207002,-3.09E-11,,
,7.209002,-3.15E-11,,
,7.211002,-3.19E-11,,
,7.213002,-3.19E-11,,
,7.215002,-3.21E-11,,
,7.217002,-3.23E-11,,
,7.219002,-3.29E-11,,
,7.221002,-3.35E-11,,
,7.223002,-3.41E-11,,
,7.225002,-3.49E-11,,
,7.227002,-3.52E-11,,
,7.229002,-3.56E-11,,
,7.231002,-3.55E-11,,
,7.233002,-3.57E-11,,
,7.235002,-3.61E-11,,
,7.237002,-3.67E-11,,
,7.239002,-3.74E-11,,
,7.241002,-3.78E-11,,
,7.243002,-3.82E-11,,
,7.245002,-3.86E-11,,
,7.247002,-3.87E-11,,
,7.249002,-3.87E-11,,
,7.251002,-3.89E-11,,
,7.253002,-3.95E-11,,
,7.255002,-4.04E-11,,
,7.257002,-4.10E-11,,
,7.259002,-4.13E-11,,
,7.261002,-4.11E-11,,
,7.263002,-4.10E-11,,
,7.265002,-4.08E-11,,
,7.267002,-4.07E-11,,
,7.269002,-4.09E-11,,
,7.271002,-4.13E-11,,
,7.273002,-4.18E-11,,
,7.275002,-4.21E-11,,
,7.277002,-4.22E-11,,
,7.279002,-4.20E-11,,
,7.281002,-4.17E-11,,
,7.283002,-4.17E-11,,
,7.285002,-4.17E-11,,
,7.287002,-4.19E-11,,
,7.289002,-4.22E-11,,
,7.291002,-4.23E-11,,
,7.293002,-4.21E-11,,
,7.295002,-4.17E-11,,
,7.297002,-4.14E-11,,
,7.299002,-4.10E-11,,
,7.301002,-4.09E-11,,
,7.303002,-4.11E-11,,
,7.305002,-4.16E-11,,
,7.307002,-4.18E-11,,
,7.309002,-4.17E-11,,
,7.311002,-4.14E-11,,
,7.313002,-4.10E-11,,
,7.315002,-4.04E-11,,
,7.317002,-4.01E-11,,
,7.319002,-3.99E-11,,
,7.321002,-4.03E-11,,
,7.323002,-4.04E-11,,
,7.325002,-4.04E-11,,
,7.327002,-4.00E-11,,
,7.329002,-3.94E-11,,
,7.331002,-3.89E-11,,
,7.333002,-3.85E-11,,
,7.335002,-3.81E-11,,
,7.337002,-3.81E-11,,
,7.339002,-3.81E-11,,
,7.341002,-3.81E-11,,
,7.343002,-3.78E-11,,
,7.345002,-3.75E-11,,
,7.347002,-3.67E-11,,
,7.349002,-3.61E-11,,
,7.351002,-3.57E-11,,
,7.353002,-3.57E-11,,
,7.355002,-3.56E-11,,
,7.357002,-3.53E-11,,
,7.359002,-3.50E-11,,
,7.361002,-3.46E-11,,
,7.363002,-3.39E-11,,
,7.365002,-3.34E-11,,
,7.367002,-3.31E-11,,
,7.369002,-3.28E-11,,
,7.371002,-3.27E-11,,
,7.373002,-3.27E-11,,
,7.375002,-3.27E-11,,
,7.377002,-3.22E-11,,
,7.379002,-3.16E-11,,
,7.381002,-3.11E-11,,
,7.383002,-3.07E-11,,
,7.385002,-3.03E-11,,
,7.387002,-3.02E-11,,
,7.389002,-3.04E-11,,
,7.391002,-3.05E-11,,
,7.393002,-3.05E-11,,
,7.395002,-3.00E-11,,
,7.397002,-2.95E-11,,
,7.399002,-2.88E-11,,
,7.401002,-2.87E-11,,
,7.403002,-2.88E-11,,
,7.405002,-2.91E-11,,
,7.407002,-2.89E-11,,
,7.409002,-2.86E-11,,
,7.411002,-2.82E-11,,
,7.413002,-2.78E-11,,
,7.415002,-2.74E-11,,
,7.417002,-2.73E-11,,
,7.419002,-2.74E-11,,
,7.421002,-2.76E-11,,
,7.423002,-2.78E-11,,
,7.425002,-2.78E-11,,
,7.427002,-2.78E-11,,
,7.429002,-2.75E-11,,
,7.431002,-2.73E-11,,
,7.433002,-2.71E-11,,
,7.435002,-2.71E-11,,
,7.437002,-2.71E-11,,
,7.439002,-2.75E-11,,
,7.441002,-2.76E-11,,
,7.443002,-2.77E-11,,
,7.445002,-2.76E-11,,
,7.447002,-2.74E-11,,
,7.449002,-2.71E-11,,
,7.451002,-2.71E-11,,
,7.453002,-2.73E-11,,
,7.455002,-2.76E-11,,
,7.457002,-2.78E-11,,
,7.459002,-2.82E-11,,
,7.461002,-2.80E-11,,
,7.463002,-2.75E-11,,
,7.465002,-2.73E-11,,
,7.467002,-2.73E-11,,
,7.469002,-2.75E-11,,
,7.471002,-2.75E-11,,
,7.473002,-2.77E-11,,
,7.475002,-2.80E-11,,
,7.477002,-2.80E-11,,
,7.479002,-2.82E-11,,
,7.481002,-2.79E-11,,
,7.483002,-2.80E-11,,
,7.485002,-2.83E-11,,
,7.487002,-2.86E-11,,
,7.489002,-2.93E-11,,
,7.491002,-2.98E-11,,
,7.493002,-3.02E-11,,
,7.495002,-2.99E-11,,
,7.497002,-2.95E-11,,
,7.499002,-2.94E-11,,
,7.501002,-2.95E-11,,
,7.503002,-2.99E-11,,
,7.505002,-3.02E-11,,
,7.507002,-3.05E-11,,
,7.509002,-3.07E-11,,
,7.511002,-3.07E-11,,
,7.513002,-3.07E-11,,
,7.515002,-3.08E-11,,
,7.517002,-3.09E-11,,
,7.519002,-3.11E-11,,
,7.521002,-3.16E-11,,
,7.523002,-3.20E-11,,
,7.525002,-3.23E-11,,
,7.527002,-3.21E-11,,
,7.529002,-3.20E-11,,
,7.531002,-3.18E-11,,
,7.533002,-3.15E-11,,
,7.535002,-3.14E-11,,
,7.537002,-3.17E-11,,
,7.539002,-3.20E-11,,
,7.541002,-3.22E-11,,
,7.543002,-3.22E-11,,
,7.545002,-3.22E-11,,
,7.547002,-3.21E-11,,
,7.549002,-3.17E-11,,
,7.551002,-3.16E-11,,
,7.553002,-3.15E-11,,
,7.555002,-3.19E-11,,
,7.557002,-3.22E-11,,
,7.559002,-3.24E-11,,
,7.561002,-3.21E-11,,
,7.563002,-3.16E-11,,
,7.565002,-3.09E-11,,
,7.567002,-3.07E-11,,
,7.569002,-3.06E-11,,
,7.571002,-3.09E-11,,
,7.573002,-3.11E-11,,
,7.575002,-3.11E-11,,
,7.577002,-3.07E-11,,
,7.579002,-3.02E-11,,
,7.581002,-2.97E-11,,
,7.583002,-2.93E-11,,
,7.585002,-2.93E-11,,
,7.587002,-2.94E-11,,
,7.589002,-2.93E-11,,
,7.591002,-2.94E-11,,
,7.593002,-2.91E-11,,
,7.595002,-2.87E-11,,
,7.597002,-2.78E-11,,
,7.599002,-2.73E-11,,
,7.601002,-2.68E-11,,
,7.603002,-2.63E-11,,
,7.605002,-2.60E-11,,
,7.607002,-2.61E-11,,
,7.609002,-2.61E-11,,
,7.611002,-2.60E-11,,
,7.613002,-2.53E-11,,
,7.615002,-2.47E-11,,
,7.617002,-2.41E-11,,
,7.619002,-2.36E-11,,
,7.621002,-2.32E-11,,
,7.623002,-2.29E-11,,
,7.625002,-2.26E-11,,
,7.627002,-2.21E-11,,
,7.629002,-2.13E-11,,
,7.631002,-2.05E-11,,
,7.633002,-1.96E-11,,
,7.635002,-1.92E-11,,
,7.637002,-1.89E-11,,
,7.639002,-1.89E-11,,
,7.641002,-1.85E-11,,
,7.643002,-1.80E-11,,
,7.645002,-1.72E-11,,
,7.647002,-1.63E-11,,
,7.649002,-1.56E-11,,
,7.651002,-1.48E-11,,
,7.653002,-1.46E-11,,
,7.655002,-1.42E-11,,
,7.657002,-1.41E-11,,
,7.659002,-1.36E-11,,
,7.661002,-1.30E-11,,
,7.663002,-1.20E-11,,
,7.665002,-1.12E-11,,
,7.667002,-1.04E-11,,
,7.669002,-1.00E-11,,
,7.671002,-9.69E-12,,
,7.673002,-9.58E-12,,
,7.675002,-9.26E-12,,
,7.677002,-8.61E-12,,
,7.679002,-7.54E-12,,
,7.681002,-6.68E-12,,
,7.683002,-6.14E-12,,
,7.685002,-5.72E-12,,
,7.687002,-5.29E-12,,
,7.689002,-4.96E-12,,
,7.691002,-4.75E-12,,
,7.693002,-4.43E-12,,
,7.695002,-3.78E-12,,
,7.697002,-3.25E-12,,
,7.699002,-2.49E-12,,
,7.701002,-1.85E-12,,
,7.703002,-1.21E-12,,
,7.705002,-8.84E-13,,
,7.707002,-5.62E-13,,
,7.709002,-1.33E-13,,
,7.711002,6.19E-13,,
,7.713002,1.37E-12,,
,7.715002,1.91E-12,,
,7.717002,2.34E-12,,
,7.719002,2.55E-12,,
,7.721002,2.66E-12,,
,7.723002,2.77E-12,,
,7.725002,2.98E-12,,
,7.727002,3.52E-12,,
,7.729002,3.84E-12,,
,7.731002,4.38E-12,,
,7.733002,4.91E-12,,
,7.735002,5.34E-12,,
,7.737002,5.45E-12,,
,7.739002,5.45E-12,,
,7.741002,5.56E-12,,
,7.743002,5.77E-12,,
,7.745002,6.20E-12,,
,7.747002,6.63E-12,,
,7.749002,6.95E-12,,
,7.751002,7.06E-12,,
,7.753002,6.95E-12,,
,7.755002,6.95E-12,,
,7.757002,6.74E-12,,
,7.759002,6.95E-12,,
,7.761002,7.27E-12,,
,7.763002,7.81E-12,,
,7.765002,8.46E-12,,
,7.767002,8.78E-12,,
,7.769002,8.89E-12,,
,7.771002,8.78E-12,,
,7.773002,8.78E-12,,
,7.775002,8.78E-12,,
,7.777002,8.67E-12,,
,7.779002,8.89E-12,,
,7.781002,9.31E-12,,
,7.783002,9.85E-12,,
,7.785002,9.96E-12,,
,7.787002,9.64E-12,,
,7.789002,9.31E-12,,
,7.791002,9.21E-12,,
,7.793002,9.42E-12,,
,7.795002,9.74E-12,,
,7.797002,1.01E-11,,
,7.799002,1.06E-11,,
,7.801002,1.09E-11,,
,7.803002,1.10E-11,,
,7.805002,1.08E-11,,
,7.807002,1.05E-11,,
,7.809002,1.04E-11,,
,7.811002,1.06E-11,,
,7.813002,1.10E-11,,
,7.815002,1.12E-11,,
,7.817002,1.11E-11,,
,7.819002,1.08E-11,,
,7.821002,1.06E-11,,
,7.823002,1.03E-11,,
,7.825002,1.02E-11,,
,7.827002,1.04E-11,,
,7.829002,1.05E-11,,
,7.831002,1.08E-11,,
,7.833002,1.09E-11,,
,7.835002,1.10E-11,,
,7.837002,1.07E-11,,
,7.839002,9.85E-12,,
,7.841002,9.53E-12,,
,7.843002,9.21E-12,,
,7.845002,9.53E-12,,
,7.847002,9.74E-12,,
,7.849002,9.96E-12,,
,7.851002,9.74E-12,,
,7.853002,9.31E-12,,
,7.855002,8.99E-12,,
,7.857002,8.78E-12,,
,7.859002,8.78E-12,,
,7.861002,8.56E-12,,
,7.863002,8.56E-12,,
,7.865002,8.46E-12,,
,7.867002,8.67E-12,,
,7.869002,8.56E-12,,
,7.871002,8.46E-12,,
,7.873002,8.13E-12,,
,7.875002,7.92E-12,,
,7.877002,7.60E-12,,
,7.879002,7.27E-12,,
,7.881002,7.27E-12,,
,7.883002,7.38E-12,,
,7.885002,7.38E-12,,
,7.887002,7.06E-12,,
,7.889002,6.74E-12,,
,7.891002,6.42E-12,,
,7.893002,6.31E-12,,
,7.895002,6.31E-12,,
,7.897002,6.42E-12,,
,7.899002,6.63E-12,,
,7.901002,6.31E-12,,
,7.903002,6.20E-12,,
,7.905002,5.88E-12,,
,7.907002,5.66E-12,,
,7.909002,5.56E-12,,
,7.911002,5.45E-12,,
,7.913002,5.66E-12,,
,7.915002,5.66E-12,,
,7.917002,5.56E-12,,
,7.919002,5.34E-12,,
,7.921002,4.91E-12,,
,7.923002,4.48E-12,,
,7.925002,4.05E-12,,
,7.927002,3.84E-12,,
,7.929002,3.84E-12,,
,7.931002,3.84E-12,,
,7.933002,3.73E-12,,
,7.935002,3.20E-12,,
,7.937002,2.87E-12,,
,7.939002,2.55E-12,,
,7.941002,2.44E-12,,
,7.943002,2.23E-12,,
,7.945002,2.12E-12,,
,7.947002,2.23E-12,,
,7.949002,2.23E-12,,
,7.951002,2.12E-12,,
,7.953002,1.69E-12,,
,7.955002,9.41E-13,,
,7.957002,2.97E-13,,
,7.959002,-3.47E-13,,
,7.961002,-3.47E-13,,
,7.963002,-3.47E-13,,
,7.965002,-2.53E-14,,
,7.967002,-1.33E-13,,
,7.969002,-5.62E-13,,
,7.971002,-1.10E-12,,
,7.973002,-1.64E-12,,
,7.975002,-1.85E-12,,
,7.977002,-2.17E-12,,
,7.979002,-2.28E-12,,
,7.981002,-2.39E-12,,
,7.983002,-2.49E-12,,
,7.985002,-2.92E-12,,
,7.987002,-3.78E-12,,
,7.989002,-4.64E-12,,
,7.991002,-5.29E-12,,
,7.993002,-5.50E-12,,
,7.995002,-5.50E-12,,
,7.997002,-5.07E-12,,
,7.999002,-4.96E-12,,
,8.001002,-4.96E-12,,
,8.003002,-5.72E-12,,
,8.005002,-6.25E-12,,
,8.007002,-6.79E-12,,
,8.009002,-7.11E-12,,
,8.011002,-7.22E-12,,
,8.013002,-7.43E-12,,
,8.015002,-7.33E-12,,
,8.017002,-7.54E-12,,
,8.019002,-7.75E-12,,
,8.021002,-8.40E-12,,
,8.023002,-8.83E-12,,
,8.025002,-9.26E-12,,
,8.027002,-9.37E-12,,
,8.029002,-9.37E-12,,
,8.031002,-9.04E-12,,
,8.033002,-8.72E-12,,
,8.035002,-8.72E-12,,
,8.037002,-9.15E-12,,
,8.039002,-9.69E-12,,
,8.041002,-1.00E-11,,
,8.043002,-1.02E-11,,
,8.045002,-1.04E-11,,
,8.047002,-1.04E-11,,
,8.049002,-1.04E-11,,
,8.051002,-1.03E-11,,
,8.053002,-1.07E-11,,
,8.055002,-1.08E-11,,
,8.057002,-1.11E-11,,
,8.059002,-1.10E-11,,
,8.061002,-1.10E-11,,
,8.063002,-1.08E-11,,
,8.065002,-1.07E-11,,
,8.067002,-1.04E-11,,
,8.069002,-1.03E-11,,
,8.071002,-1.05E-11,,
,8.073002,-1.10E-11,,
,8.075002,-1.13E-11,,
,8.077002,-1.12E-11,,
,8.079002,-1.10E-11,,
,8.081002,-1.07E-11,,
,8.083002,-1.04E-11,,
,8.085002,-1.03E-11,,
,8.087002,-1.02E-11,,
,8.089002,-1.07E-11,,
,8.091002,-1.08E-11,,
,8.093002,-1.09E-11,,
,8.095002,-1.07E-11,,
,8.097002,-1.04E-11,,
,8.099002,-1.01E-11,,
,8.101002,-9.69E-12,,
,8.103002,-9.79E-12,,
,8.105002,-1.01E-11,,
,8.107002,-1.02E-11,,
,8.109002,-1.01E-11,,
,8.111002,-9.79E-12,,
,8.113002,-9.69E-12,,
,8.115002,-9.26E-12,,
,8.117002,-9.15E-12,,
,8.119002,-9.04E-12,,
,8.121002,-9.58E-12,,
,8.123002,-9.79E-12,,
,8.125002,-1.00E-11,,
,8.127002,-9.58E-12,,
,8.129002,-9.37E-12,,
,8.131002,-8.94E-12,,
,8.133002,-8.40E-12,,
,8.135002,-8.08E-12,,
,8.137002,-8.18E-12,,
,8.139002,-8.61E-12,,
,8.141002,-8.72E-12,,
,8.143002,-8.51E-12,,
,8.145002,-8.29E-12,,
,8.147002,-8.18E-12,,
,8.149002,-8.08E-12,,
,8.151002,-7.97E-12,,
,8.153002,-7.86E-12,,
,8.155002,-7.97E-12,,
,8.157002,-7.97E-12,,
,8.159002,-7.97E-12,,
,8.161002,-7.75E-12,,
,8.163002,-7.33E-12,,
,8.165002,-6.90E-12,,
,8.167002,-6.36E-12,,
,8.169002,-6.36E-12,,
,8.171002,-6.36E-12,,
,8.173002,-6.36E-12,,
,8.175002,-6.36E-12,,
,8.177002,-6.25E-12,,
,8.179002,-6.14E-12,,
,8.181002,-5.61E-12,,
,8.183002,-5.07E-12,,
,8.185002,-4.75E-12,,
,8.187002,-4.86E-12,,
,8.189002,-5.07E-12,,
,8.191002,-4.96E-12,,
,8.193002,-4.75E-12,,
,8.195002,-4.43E-12,,
,8.197002,-4.10E-12,,
,8.199002,-3.68E-12,,
,8.201002,-3.35E-12,,
,8.203002,-3.25E-12,,
,8.205002,-3.03E-12,,
,8.207002,-3.03E-12,,
,8.209002,-2.92E-12,,
,8.211002,-2.71E-12,,
,8.213002,-2.28E-12,,
,8.215002,-1.74E-12,,
,8.217002,-1.21E-12,,
,8.219002,-9.92E-13,,
,8.221002,-1.21E-12,,
,8.223002,-1.31E-12,,
,8.225002,-1.31E-12,,
,8.227002,-7.77E-13,,
,8.229002,-4.55E-13,,
,8.231002,2.97E-13,,
,8.233002,5.11E-13,,
,8.235002,7.26E-13,,
,8.237002,6.19E-13,,
,8.239002,6.19E-13,,
,8.241002,6.19E-13,,
,8.243002,8.34E-13,,
,8.245002,1.16E-12,,
,8.247002,1.59E-12,,
,8.249002,2.01E-12,,
,8.251002,2.44E-12,,
,8.253002,2.44E-12,,
,8.255002,2.23E-12,,
,8.257002,1.69E-12,,
,8.259002,1.80E-12,,
,8.261002,1.91E-12,,
,8.263002,2.66E-12,,
,8.265002,3.20E-12,,
,8.267002,3.73E-12,,
,8.269002,3.84E-12,,
,8.271002,3.73E-12,,
,8.273002,3.62E-12,,
,8.275002,3.30E-12,,
,8.277002,3.30E-12,,
,8.279002,3.62E-12,,
,8.281002,4.05E-12,,
,8.283002,4.59E-12,,
,8.285002,4.59E-12,,
,8.287002,4.59E-12,,
,8.289002,4.38E-12,,
,8.291002,4.27E-12,,
,8.293002,4.38E-12,,
,8.295002,4.48E-12,,
,8.297002,5.13E-12,,
,8.299002,5.45E-12,,
,8.301002,5.77E-12,,
,8.303002,5.45E-12,,
,8.305002,5.24E-12,,
,8.307002,4.81E-12,,
,8.309002,4.81E-12,,
,8.311002,4.91E-12,,
,8.313002,5.02E-12,,
,8.315002,5.34E-12,,
,8.317002,5.56E-12,,
,8.319002,5.66E-12,,
,8.321002,5.24E-12,,
,8.323002,4.91E-12,,
,8.325002,4.59E-12,,
,8.327002,4.59E-12,,
,8.329002,4.70E-12,,
,8.331002,5.13E-12,,
,8.333002,5.34E-12,,
,8.335002,5.34E-12,,
,8.337002,4.91E-12,,
,8.339002,4.48E-12,,
,8.341002,4.16E-12,,
,8.343002,3.95E-12,,
,8.345002,3.95E-12,,
,8.347002,4.16E-12,,
,8.349002,4.59E-12,,
,8.351002,4.48E-12,,
,8.353002,4.16E-12,,
,8.355002,3.62E-12,,
,8.357002,3.30E-12,,
,8.359002,3.20E-12,,
,8.361002,3.20E-12,,
,8.363002,3.52E-12,,
,8.365002,3.73E-12,,
,8.367002,3.95E-12,,
,8.369002,3.73E-12,,
,8.371002,3.52E-12,,
,8.373002,2.87E-12,,
,8.375002,2.77E-12,,
,8.377002,2.55E-12,,
,8.379002,2.77E-12,,
,8.381002,2.87E-12,,
,8.383002,2.98E-12,,
,8.385002,2.87E-12,,
,8.387002,2.55E-12,,
,8.389002,1.80E-12,,
,8.391002,1.48E-12,,
,8.393002,1.26E-12,,
,8.395002,1.59E-12,,
,8.397002,1.59E-12,,
,8.399002,1.48E-12,,
,8.401002,1.26E-12,,
,8.403002,9.41E-13,,
,8.405002,5.11E-13,,
,8.407002,1.89E-13,,
,8.409002,-2.40E-13,,
,8.411002,-4.55E-13,,
,8.413002,-7.77E-13,,
,8.415002,-6.69E-13,,
,8.417002,-6.69E-13,,
,8.419002,-9.92E-13,,
,8.421002,-1.64E-12,,
,8.423002,-2.28E-12,,
,8.425002,-2.49E-12,,
,8.427002,-2.60E-12,,
,8.429002,-2.60E-12,,
,8.431002,-2.60E-12,,
,8.433002,-2.82E-12,,
,8.435002,-3.03E-12,,
,8.437002,-3.57E-12,,
,8.439002,-4.00E-12,,
,8.441002,-4.64E-12,,
,8.443002,-4.96E-12,,
,8.445002,-5.29E-12,,
,8.447002,-5.50E-12,,
,8.449002,-5.50E-12,,
,8.451002,-5.61E-12,,
,8.453002,-5.72E-12,,
,8.455002,-6.57E-12,,
,8.457002,-7.22E-12,,
,8.459002,-7.75E-12,,
,8.461002,-7.97E-12,,
,8.463002,-8.08E-12,,
,8.465002,-8.29E-12,,
,8.467002,-8.51E-12,,
,8.469002,-8.94E-12,,
,8.471002,-9.26E-12,,
,8.473002,-9.69E-12,,
,8.475002,-1.00E-11,,
,8.477002,-1.04E-11,,
,8.479002,-1.05E-11,,
,8.481002,-1.08E-11,,
,8.483002,-1.11E-11,,
,8.485002,-1.15E-11,,
,8.487002,-1.19E-11,,
,8.489002,-1.25E-11,,
,8.491002,-1.30E-11,,
,8.493002,-1.36E-11,,
,8.495002,-1.39E-11,,
,8.497002,-1.42E-11,,
,8.499002,-1.43E-11,,
,8.501002,-1.45E-11,,
,8.503002,-1.49E-11,,
,8.505002,-1.54E-11,,
,8.507002,-1.58E-11,,
,8.509002,-1.62E-11,,
,8.511002,-1.68E-11,,
,8.513002,-1.70E-11,,
,8.515002,-1.70E-11,,
,8.517002,-1.72E-11,,
,8.519002,-1.76E-11,,
,8.521002,-1.84E-11,,
,8.523002,-1.90E-11,,
,8.525002,-1.96E-11,,
,8.527002,-1.98E-11,,
,8.529002,-1.98E-11,,
,8.531002,-1.97E-11,,
,8.533002,-1.98E-11,,
,8.535002,-2.00E-11,,
,8.537002,-2.05E-11,,
,8.539002,-2.10E-11,,
,8.541002,-2.12E-11,,
,8.543002,-2.14E-11,,
,8.545002,-2.14E-11,,
,8.547002,-2.16E-11,,
,8.549002,-2.15E-11,,
,8.551002,-2.18E-11,,
,8.553002,-2.22E-11,,
,8.555002,-2.28E-11,,
,8.557002,-2.30E-11,,
,8.559002,-2.31E-11,,
,8.561002,-2.31E-11,,
,8.563002,-2.30E-11,,
,8.565002,-2.28E-11,,
,8.567002,-2.27E-11,,
,8.569002,-2.30E-11,,
,8.571002,-2.34E-11,,
,8.573002,-2.39E-11,,
,8.575002,-2.39E-11,,
,8.577002,-2.39E-11,,
,8.579002,-2.38E-11,,
,8.581002,-2.38E-11,,
,8.583002,-2.33E-11,,
,8.585002,-2.32E-11,,
,8.587002,-2.34E-11,,
,8.589002,-2.38E-11,,
,8.591002,-2.40E-11,,
,8.593002,-2.39E-11,,
,8.595002,-2.39E-11,,
,8.597002,-2.34E-11,,
,8.599002,-2.31E-11,,
,8.601002,-2.28E-11,,
,8.603002,-2.27E-11,,
,8.605002,-2.27E-11,,
,8.607002,-2.27E-11,,
,8.609002,-2.28E-11,,
,8.611002,-2.25E-11,,
,8.613002,-2.20E-11,,
,8.615002,-2.16E-11,,
,8.617002,-2.13E-11,,
,8.619002,-2.14E-11,,
,8.621002,-2.14E-11,,
,8.623002,-2.16E-11,,
,8.625002,-2.16E-11,,
,8.627002,-2.13E-11,,
,8.629002,-2.07E-11,,
,8.631002,-1.99E-11,,
,8.633002,-1.95E-11,,
,8.635002,-1.90E-11,,
,8.637002,-1.91E-11,,
,8.639002,-1.91E-11,,
,8.641002,-1.92E-11,,
,8.643002,-1.89E-11,,
,8.645002,-1.86E-11,,
,8.647002,-1.78E-11,,
,8.649002,-1.73E-11,,
,8.651002,-1.69E-11,,
,8.653002,-1.69E-11,,
,8.655002,-1.70E-11,,
,8.657002,-1.71E-11,,
,8.659002,-1.71E-11,,
,8.661002,-1.67E-11,,
,8.663002,-1.59E-11,,
,8.665002,-1.54E-11,,
,8.667002,-1.51E-11,,
,8.669002,-1.51E-11,,
,8.671002,-1.48E-11,,
,8.673002,-1.48E-11,,
,8.675002,-1.47E-11,,
,8.677002,-1.46E-11,,
,8.679002,-1.42E-11,,
,8.681002,-1.38E-11,,
,8.683002,-1.36E-11,,
,8.685002,-1.33E-11,,
,8.687002,-1.36E-11,,
,8.689002,-1.37E-11,,
,8.691002,-1.38E-11,,
,8.693002,-1.34E-11,,
,8.695002,-1.28E-11,,
,8.697002,-1.23E-11,,
,8.699002,-1.18E-11,,
,8.701002,-1.16E-11,,
,8.703002,-1.15E-11,,
,8.705002,-1.14E-11,,
,8.707002,-1.13E-11,,
,8.709002,-1.11E-11,,
,8.711002,-1.09E-11,,
,8.713002,-1.07E-11,,
,8.715002,-1.04E-11,,
,8.717002,-1.02E-11,,
,8.719002,-1.01E-11,,
,8.721002,-1.00E-11,,
,8.723002,-1.01E-11,,
,8.725002,-1.00E-11,,
,8.727002,-1.01E-11,,
,8.729002,-9.79E-12,,
,8.731002,-9.69E-12,,
,8.733002,-9.04E-12,,
,8.735002,-8.94E-12,,
,8.737002,-8.94E-12,,
,8.739002,-9.37E-12,,
,8.741002,-9.58E-12,,
,8.743002,-9.58E-12,,
,8.745002,-9.47E-12,,
,8.747002,-9.15E-12,,
,8.749002,-8.72E-12,,
,8.751002,-8.61E-12,,
,8.753002,-8.72E-12,,
,8.755002,-9.15E-12,,
,8.757002,-9.26E-12,,
,8.759002,-9.37E-12,,
,8.761002,-9.37E-12,,
,8.763002,-9.26E-12,,
,8.765002,-8.83E-12,,
,8.767002,-8.61E-12,,
,8.769002,-8.83E-12,,
,8.771002,-9.26E-12,,
,8.773002,-9.58E-12,,
,8.775002,-9.47E-12,,
,8.777002,-9.47E-12,,
,8.779002,-9.15E-12,,
,8.781002,-9.15E-12,,
,8.783002,-8.94E-12,,
,8.785002,-9.04E-12,,
,8.787002,-9.26E-12,,
,8.789002,-9.58E-12,,
,8.791002,-9.79E-12,,
,8.793002,-9.79E-12,,
,8.795002,-9.69E-12,,
,8.797002,-9.37E-12,,
,8.799002,-9.04E-12,,
,8.801002,-9.04E-12,,
,8.803002,-9.26E-12,,
,8.805002,-9.47E-12,,
,8.807002,-9.58E-12,,
,8.809002,-9.69E-12,,
,8.811002,-9.79E-12,,
,8.813002,-9.79E-12,,
,8.815002,-9.58E-12,,
,8.817002,-9.47E-12,,
,8.819002,-9.47E-12,,
,8.821002,-9.79E-12,,
,8.823002,-1.00E-11,,
,8.825002,-1.03E-11,,
,8.827002,-1.03E-11,,
,8.829002,-1.01E-11,,
,8.831002,-9.79E-12,,
,8.833002,-9.69E-12,,
,8.835002,-9.90E-12,,
,8.837002,-1.00E-11,,
,8.839002,-1.01E-11,,
,8.841002,-1.03E-11,,
,8.843002,-1.07E-11,,
,8.845002,-1.05E-11,,
,8.847002,-1.03E-11,,
,8.849002,-9.79E-12,,
,8.851002,-9.90E-12,,
,8.853002,-1.01E-11,,
,8.855002,-1.07E-11,,
,8.857002,-1.11E-11,,
,8.859002,-1.13E-11,,
,8.861002,-1.12E-11,,
,8.863002,-1.10E-11,,
,8.865002,-1.05E-11,,
,8.867002,-1.05E-11,,
,8.869002,-1.05E-11,,
,8.871002,-1.12E-11,,
,8.873002,-1.15E-11,,
,8.875002,-1.18E-11,,
,8.877002,-1.16E-11,,
,8.879002,-1.15E-11,,
,8.881002,-1.14E-11,,
,8.883002,-1.13E-11,,
,8.885002,-1.15E-11,,
,8.887002,-1.16E-11,,
,8.889002,-1.19E-11,,
,8.891002,-1.19E-11,,
,8.893002,-1.19E-11,,
,8.895002,-1.18E-11,,
,8.897002,-1.15E-11,,
,8.899002,-1.14E-11,,
,8.901002,-1.13E-11,,
,8.903002,-1.16E-11,,
,8.905002,-1.19E-11,,
,8.907002,-1.24E-11,,
,8.909002,-1.27E-11,,
,8.911002,-1.27E-11,,
,8.913002,-1.27E-11,,
,8.915002,-1.24E-11,,
,8.917002,-1.23E-11,,
,8.919002,-1.23E-11,,
,8.921002,-1.28E-11,,
,8.923002,-1.34E-11,,
,8.925002,-1.39E-11,,
,8.927002,-1.40E-11,,
,8.929002,-1.38E-11,,
,8.931002,-1.36E-11,,
,8.933002,-1.34E-11,,
,8.935002,-1.36E-11,,
,8.937002,-1.40E-11,,
,8.939002,-1.43E-11,,
,8.941002,-1.46E-11,,
,8.943002,-1.45E-11,,
,8.945002,-1.43E-11,,
,8.947002,-1.42E-11,,
,8.949002,-1.40E-11,,
,8.951002,-1.40E-11,,
,8.953002,-1.41E-11,,
,8.955002,-1.48E-11,,
,8.957002,-1.54E-11,,
,8.959002,-1.58E-11,,
,8.961002,-1.58E-11,,
,8.963002,-1.58E-11,,
,8.965002,-1.56E-11,,
,8.967002,-1.56E-11,,
,8.969002,-1.56E-11,,
,8.971002,-1.58E-11,,
,8.973002,-1.60E-11,,
,8.975002,-1.63E-11,,
,8.977002,-1.66E-11,,
,8.979002,-1.66E-11,,
,8.981002,-1.63E-11,,
,8.983002,-1.63E-11,,
,8.985002,-1.65E-11,,
,8.987002,-1.69E-11,,
,8.989002,-1.73E-11,,
,8.991002,-1.81E-11,,
,8.993002,-1.84E-11,,
,8.995002,-1.85E-11,,
,8.997002,-1.81E-11,,
,8.999002,-1.78E-11,,
,9.001002,-1.76E-11,,
,9.003002,-1.80E-11,,
,9.005002,-1.86E-11,,
,9.007002,-1.90E-11,,
,9.009002,-1.91E-11,,
,9.011002,-1.89E-11,,
,9.013002,-1.89E-11,,
,9.015002,-1.90E-11,,
,9.017002,-1.90E-11,,
,9.019002,-1.95E-11,,
,9.021002,-1.97E-11,,
,9.023002,-2.03E-11,,
,9.025002,-2.04E-11,,
,9.027002,-2.06E-11,,
,9.029002,-2.05E-11,,
,9.031002,-2.05E-11,,
,9.033002,-2.05E-11,,
,9.035002,-2.06E-11,,
,9.037002,-2.07E-11,,
,9.039002,-2.13E-11,,
,9.041002,-2.17E-11,,
,9.043002,-2.20E-11,,
,9.045002,-2.17E-11,,
,9.047002,-2.16E-11,,
,9.049002,-2.16E-11,,
,9.051002,-2.20E-11,,
,9.053002,-2.25E-11,,
,9.055002,-2.31E-11,,
,9.057002,-2.33E-11,,
,9.059002,-2.35E-11,,
,9.061002,-2.32E-11,,
,9.063002,-2.32E-11,,
,9.065002,-2.30E-11,,
,9.067002,-2.31E-11,,
,9.069002,-2.32E-11,,
,9.071002,-2.35E-11,,
,9.073002,-2.40E-11,,
,9.075002,-2.43E-11,,
,9.077002,-2.44E-11,,
,9.079002,-2.46E-11,,
,9.081002,-2.43E-11,,
,9.083002,-2.42E-11,,
,9.085002,-2.40E-11,,
,9.087002,-2.45E-11,,
,9.089002,-2.49E-11,,
,9.091002,-2.51E-11,,
,9.093002,-2.50E-11,,
,9.095002,-2.46E-11,,
,9.097002,-2.45E-11,,
,9.099002,-2.44E-11,,
,9.101002,-2.46E-11,,
,9.103002,-2.48E-11,,
,9.105002,-2.50E-11,,
,9.107002,-2.53E-11,,
,9.109002,-2.54E-11,,
,9.111002,-2.53E-11,,
,9.113002,-2.51E-11,,
,9.115002,-2.46E-11,,
,9.117002,-2.42E-11,,
,9.119002,-2.41E-11,,
,9.121002,-2.44E-11,,
,9.123002,-2.49E-11,,
,9.125002,-2.51E-11,,
,9.127002,-2.53E-11,,
,9.129002,-2.49E-11,,
,9.131002,-2.44E-11,,
,9.133002,-2.39E-11,,
,9.135002,-2.39E-11,,
,9.137002,-2.39E-11,,
,9.139002,-2.41E-11,,
,9.141002,-2.39E-11,,
,9.143002,-2.40E-11,,
,9.145002,-2.36E-11,,
,9.147002,-2.33E-11,,
,9.149002,-2.30E-11,,
,9.151002,-2.30E-11,,
,9.153002,-2.31E-11,,
,9.155002,-2.33E-11,,
,9.157002,-2.35E-11,,
,9.159002,-2.35E-11,,
,9.161002,-2.34E-11,,
,9.163002,-2.30E-11,,
,9.165002,-2.26E-11,,
,9.167002,-2.24E-11,,
,9.169002,-2.26E-11,,
,9.171002,-2.30E-11,,
,9.173002,-2.30E-11,,
,9.175002,-2.28E-11,,
,9.177002,-2.25E-11,,
,9.179002,-2.22E-11,,
,9.181002,-2.18E-11,,
,9.183002,-2.18E-11,,
,9.185002,-2.19E-11,,
,9.187002,-2.21E-11,,
,9.189002,-2.25E-11,,
,9.191002,-2.27E-11,,
,9.193002,-2.27E-11,,
,9.195002,-2.24E-11,,
,9.197002,-2.18E-11,,
,9.199002,-2.15E-11,,
,9.201002,-2.13E-11,,
,9.203002,-2.12E-11,,
,9.205002,-2.14E-11,,
,9.207002,-2.15E-11,,
,9.209002,-2.17E-11,,
,9.211002,-2.15E-11,,
,9.213002,-2.11E-11,,
,9.215002,-2.05E-11,,
,9.217002,-2.01E-11,,
,9.219002,-2.00E-11,,
,9.221002,-2.00E-11,,
,9.223002,-2.02E-11,,
,9.225002,-2.03E-11,,
,9.227002,-2.03E-11,,
,9.229002,-1.98E-11,,
,9.231002,-1.93E-11,,
,9.233002,-1.89E-11,,
,9.235002,-1.89E-11,,
,9.237002,-1.90E-11,,
,9.239002,-1.90E-11,,
,9.241002,-1.90E-11,,
,9.243002,-1.87E-11,,
,9.245002,-1.85E-11,,
,9.247002,-1.81E-11,,
,9.249002,-1.76E-11,,
,9.251002,-1.73E-11,,
,9.253002,-1.75E-11,,
,9.255002,-1.76E-11,,
,9.257002,-1.78E-11,,
,9.259002,-1.76E-11,,
,9.261002,-1.75E-11,,
,9.263002,-1.73E-11,,
,9.265002,-1.69E-11,,
,9.267002,-1.65E-11,,
,9.269002,-1.63E-11,,
,9.271002,-1.65E-11,,
,9.273002,-1.68E-11,,
,9.275002,-1.67E-11,,
,9.277002,-1.68E-11,,
,9.279002,-1.67E-11,,
,9.281002,-1.65E-11,,
,9.283002,-1.62E-11,,
,9.285002,-1.60E-11,,
,9.287002,-1.62E-11,,
,9.289002,-1.65E-11,,
,9.291002,-1.68E-11,,
,9.293002,-1.68E-11,,
,9.295002,-1.65E-11,,
,9.297002,-1.62E-11,,
,9.299002,-1.60E-11,,
,9.301002,-1.58E-11,,
,9.303002,-1.58E-11,,
,9.305002,-1.58E-11,,
,9.307002,-1.60E-11,,
,9.309002,-1.60E-11,,
,9.311002,-1.59E-11,,
,9.313002,-1.58E-11,,
,9.315002,-1.54E-11,,
,9.317002,-1.52E-11,,
,9.319002,-1.51E-11,,
,9.321002,-1.55E-11,,
,9.323002,-1.58E-11,,
,9.325002,-1.58E-11,,
,9.327002,-1.55E-11,,
,9.329002,-1.52E-11,,
,9.331002,-1.48E-11,,
,9.333002,-1.47E-11,,
,9.335002,-1.44E-11,,
,9.337002,-1.45E-11,,
,9.339002,-1.44E-11,,
,9.341002,-1.46E-11,,
,9.343002,-1.45E-11,,
,9.345002,-1.43E-11,,
,9.347002,-1.40E-11,,
,9.349002,-1.36E-11,,
,9.351002,-1.33E-11,,
,9.353002,-1.31E-11,,
,9.355002,-1.34E-11,,
,9.357002,-1.38E-11,,
,9.359002,-1.41E-11,,
,9.361002,-1.38E-11,,
,9.363002,-1.33E-11,,
,9.365002,-1.28E-11,,
,9.367002,-1.28E-11,,
,9.369002,-1.27E-11,,
,9.371002,-1.30E-11,,
,9.373002,-1.31E-11,,
,9.375002,-1.34E-11,,
,9.377002,-1.33E-11,,
,9.379002,-1.31E-11,,
,9.381002,-1.28E-11,,
,9.383002,-1.25E-11,,
,9.385002,-1.23E-11,,
,9.387002,-1.23E-11,,
,9.389002,-1.26E-11,,
,9.391002,-1.31E-11,,
,9.393002,-1.32E-11,,
,9.395002,-1.33E-11,,
,9.397002,-1.28E-11,,
,9.399002,-1.25E-11,,
,9.401002,-1.22E-11,,
,9.403002,-1.25E-11,,
,9.405002,-1.27E-11,,
,9.407002,-1.30E-11,,
,9.409002,-1.30E-11,,
,9.411002,-1.31E-11,,
,9.413002,-1.28E-11,,
,9.415002,-1.26E-11,,
,9.417002,-1.24E-11,,
,9.419002,-1.24E-11,,
,9.421002,-1.27E-11,,
,9.423002,-1.34E-11,,
,9.425002,-1.40E-11,,
,9.427002,-1.39E-11,,
,9.429002,-1.34E-11,,
,9.431002,-1.30E-11,,
,9.433002,-1.30E-11,,
,9.435002,-1.29E-11,,
,9.437002,-1.32E-11,,
,9.439002,-1.37E-11,,
,9.441002,-1.40E-11,,
,9.443002,-1.41E-11,,
,9.445002,-1.39E-11,,
,9.447002,-1.37E-11,,
,9.449002,-1.33E-11,,
,9.451002,-1.36E-11,,
,9.453002,-1.40E-11,,
,9.455002,-1.45E-11,,
,9.457002,-1.46E-11,,
,9.459002,-1.47E-11,,
,9.461002,-1.46E-11,,
,9.463002,-1.45E-11,,
,9.465002,-1.41E-11,,
,9.467002,-1.41E-11,,
,9.469002,-1.41E-11,,
,9.471002,-1.45E-11,,
,9.473002,-1.47E-11,,
,9.475002,-1.49E-11,,
,9.477002,-1.49E-11,,
,9.479002,-1.47E-11,,
,9.481002,-1.45E-11,,
,9.483002,-1.43E-11,,
,9.485002,-1.44E-11,,
,9.487002,-1.45E-11,,
,9.489002,-1.47E-11,,
,9.491002,-1.49E-11,,
,9.493002,-1.49E-11,,
,9.495002,-1.46E-11,,
,9.497002,-1.41E-11,,
,9.499002,-1.38E-11,,
,9.501002,-1.37E-11,,
,9.503002,-1.37E-11,,
,9.505002,-1.38E-11,,
,9.507002,-1.38E-11,,
,9.509002,-1.41E-11,,
,9.511002,-1.40E-11,,
,9.513002,-1.37E-11,,
,9.515002,-1.29E-11,,
,9.517002,-1.24E-11,,
,9.519002,-1.24E-11,,
,9.521002,-1.26E-11,,
,9.523002,-1.29E-11,,
,9.525002,-1.28E-11,,
,9.527002,-1.25E-11,,
,9.529002,-1.20E-11,,
,9.531002,-1.15E-11,,
,9.533002,-1.12E-11,,
,9.535002,-1.09E-11,,
,9.537002,-1.10E-11,,
,9.539002,-1.11E-11,,
,9.541002,-1.13E-11,,
,9.543002,-1.14E-11,,
,9.545002,-1.12E-11,,
,9.547002,-1.08E-11,,
,9.549002,-1.01E-11,,
,9.551002,-9.90E-12,,
,9.553002,-9.79E-12,,
,9.555002,-1.01E-11,,
,9.557002,-1.02E-11,,
,9.559002,-1.02E-11,,
,9.561002,-1.00E-11,,
,9.563002,-9.58E-12,,
,9.565002,-9.26E-12,,
,9.567002,-8.83E-12,,
,9.569002,-8.83E-12,,
,9.571002,-8.94E-12,,
,9.573002,-9.26E-12,,
,9.575002,-9.26E-12,,
,9.577002,-9.15E-12,,
,9.579002,-8.94E-12,,
,9.581002,-8.61E-12,,
,9.583002,-8.29E-12,,
,9.585002,-8.18E-12,,
,9.587002,-8.18E-12,,
,9.589002,-8.51E-12,,
,9.591002,-8.40E-12,,
,9.593002,-8.51E-12,,
,9.595002,-8.08E-12,,
,9.597002,-7.97E-12,,
,9.599002,-7.43E-12,,
,9.601002,-7.43E-12,,
,9.603002,-7.54E-12,,
,9.605002,-7.86E-12,,
,9.607002,-8.08E-12,,
,9.609002,-7.97E-12,,
,9.611002,-7.86E-12,,
,9.613002,-7.43E-12,,
,9.615002,-7.22E-12,,
,9.617002,-7.00E-12,,
,9.619002,-7.00E-12,,
,9.621002,-7.11E-12,,
,9.623002,-7.54E-12,,
,9.625002,-7.75E-12,,
,9.627002,-7.86E-12,,
,9.629002,-7.43E-12,,
,9.631002,-7.22E-12,,
,9.633002,-6.79E-12,,
,9.635002,-6.79E-12,,
,9.637002,-6.79E-12,,
,9.639002,-7.22E-12,,
,9.641002,-7.43E-12,,
,9.643002,-7.54E-12,,
,9.645002,-7.11E-12,,
,9.647002,-6.90E-12,,
,9.649002,-6.79E-12,,
,9.651002,-6.90E-12,,
,9.653002,-7.11E-12,,
,9.655002,-7.43E-12,,
,9.657002,-7.86E-12,,
,9.659002,-8.08E-12,,
,9.661002,-8.08E-12,,
,9.663002,-7.97E-12,,
,9.665002,-7.65E-12,,
,9.667002,-7.65E-12,,
,9.669002,-7.65E-12,,
,9.671002,-8.08E-12,,
,9.673002,-8.29E-12,,
,9.675002,-8.51E-12,,
,9.677002,-8.61E-12,,
,9.679002,-8.51E-12,,
,9.681002,-8.51E-12,,
,9.683002,-8.61E-12,,
,9.685002,-8.72E-12,,
,9.687002,-9.04E-12,,
,9.689002,-9.26E-12,,
,9.691002,-9.69E-12,,
,9.693002,-9.69E-12,,
,9.695002,-9.69E-12,,
,9.697002,-9.47E-12,,
,9.699002,-9.37E-12,,
,9.701002,-9.26E-12,,
,9.703002,-9.58E-12,,
,9.705002,-1.00E-11,,
,9.707002,-1.04E-11,,
,9.709002,-1.07E-11,,
,9.711002,-1.07E-11,,
,9.713002,-1.04E-11,,
,9.715002,-1.01E-11,,
,9.717002,-9.90E-12,,
,9.719002,-9.90E-12,,
,9.721002,-1.02E-11,,
,9.723002,-1.07E-11,,
,9.725002,-1.10E-11,,
,9.727002,-1.12E-11,,
,9.729002,-1.09E-11,,
,9.731002,-1.05E-11,,
,9.733002,-1.03E-11,,
,9.735002,-1.07E-11,,
,9.737002,-1.11E-11,,
,9.739002,-1.14E-11,,
,9.741002,-1.16E-11,,
,9.743002,-1.16E-11,,
,9.745002,-1.15E-11,,
,9.747002,-1.13E-11,,
,9.749002,-1.11E-11,,
,9.751002,-1.09E-11,,
,9.753002,-1.10E-11,,
,9.755002,-1.13E-11,,
,9.757002,-1.18E-11,,
,9.759002,-1.23E-11,,
,9.761002,-1.22E-11,,
,9.763002,-1.19E-11,,
,9.765002,-1.15E-11,,
,9.767002,-1.13E-11,,
,9.769002,-1.14E-11,,
,9.771002,-1.16E-11,,
,9.773002,-1.20E-11,,
,9.775002,-1.20E-11,,
,9.777002,-1.19E-11,,
,9.779002,-1.17E-11,,
,9.781002,-1.12E-11,,
,9.783002,-1.10E-11,,
,9.785002,-1.09E-11,,
,9.787002,-1.11E-11,,
,9.789002,-1.11E-11,,
,9.791002,-1.12E-11,,
,9.793002,-1.14E-11,,
,9.795002,-1.13E-11,,
,9.797002,-1.10E-11,,
,9.799002,-1.05E-11,,
,9.801002,-1.02E-11,,
,9.803002,-1.00E-11,,
,9.805002,-1.00E-11,,
,9.807002,-1.01E-11,,
,9.809002,-1.02E-11,,
,9.811002,-9.90E-12,,
,9.813002,-9.69E-12,,
,9.815002,-9.26E-12,,
,9.817002,-9.15E-12,,
,9.819002,-9.04E-12,,
,9.821002,-9.15E-12,,
,9.823002,-9.15E-12,,
,9.825002,-9.15E-12,,
,9.827002,-9.04E-12,,
,9.829002,-8.61E-12,,
,9.831002,-8.08E-12,,
,9.833002,-7.54E-12,,
,9.835002,-7.22E-12,,
,9.837002,-7.22E-12,,
,9.839002,-7.43E-12,,
,9.841002,-7.65E-12,,
,9.843002,-7.43E-12,,
,9.845002,-7.22E-12,,
,9.847002,-6.57E-12,,
,9.849002,-6.14E-12,,
,9.851002,-5.50E-12,,
,9.853002,-5.72E-12,,
,9.855002,-5.82E-12,,
,9.857002,-6.14E-12,,
,9.859002,-6.04E-12,,
,9.861002,-5.82E-12,,
,9.863002,-5.39E-12,,
,9.865002,-5.07E-12,,
,9.867002,-4.75E-12,,
,9.869002,-4.43E-12,,
,9.871002,-4.43E-12,,
,9.873002,-4.43E-12,,
,9.875002,-4.75E-12,,
,9.877002,-4.43E-12,,
,9.879002,-4.10E-12,,
,9.881002,-3.46E-12,,
,9.883002,-3.03E-12,,
,9.885002,-2.92E-12,,
,9.887002,-2.82E-12,,
,9.889002,-3.03E-12,,
,9.891002,-3.03E-12,,
,9.893002,-3.03E-12,,
,9.895002,-2.71E-12,,
,9.897002,-2.49E-12,,
,9.899002,-2.17E-12,,
,9.901002,-2.17E-12,,
,9.903002,-2.17E-12,,
,9.905002,-2.39E-12,,
,9.907002,-2.60E-12,,
,9.909002,-2.71E-12,,
,9.911002,-2.49E-12,,
,9.913002,-1.96E-12,,
,9.915002,-1.42E-12,,
,9.917002,-1.10E-12,,
,9.919002,-1.21E-12,,
,9.921002,-1.53E-12,,
,9.923002,-1.85E-12,,
,9.925002,-1.85E-12,,
,9.927002,-1.74E-12,,
,9.929002,-1.53E-12,,
,9.931002,-1.21E-12,,
,9.933002,-8.84E-13,,
,9.935002,-8.84E-13,,
,9.937002,-9.92E-13,,
,9.939002,-1.31E-12,,
,9.941002,-1.53E-12,,
,9.943002,-1.64E-12,,
,9.945002,-1.64E-12,,
,9.947002,-1.42E-12,,
,9.949002,-1.31E-12,,
,9.951002,-1.10E-12,,
,9.953002,-1.21E-12,,
,9.955002,-1.31E-12,,
,9.957002,-1.64E-12,,
,9.959002,-1.64E-12,,
,9.961002,-1.74E-12,,
,9.963002,-1.64E-12,,
,9.965002,-1.53E-12,,
,9.967002,-1.31E-12,,
,9.969002,-1.21E-12,,
,9.971002,-1.31E-12,,
,9.973002,-1.53E-12,,
,9.975002,-1.85E-12,,
,9.977002,-2.07E-12,,
,9.979002,-1.74E-12,,
,9.981002,-1.42E-12,,
,9.983002,-1.31E-12,,
,9.985002,-1.74E-12,,
,9.987002,-2.07E-12,,
,9.989002,-2.39E-12,,
,9.991002,-2.92E-12,,
,9.993002,-3.14E-12,,
,9.995002,-3.14E-12,,
,9.997002,-2.60E-12,,
,9.999002,-2.39E-12,,
,10.001002,-2.28E-12,,
,10.003002,-2.60E-12,,
,10.005002,-2.92E-12,,
,10.007002,-3.35E-12,,
,10.009002,-3.57E-12,,
,10.011002,-3.68E-12,,
,10.013002,-3.68E-12,,
,10.015002,-3.46E-12,,
,10.017002,-3.25E-12,,
,10.019002,-3.35E-12,,
,10.021002,-3.68E-12,,
,10.023002,-4.21E-12,,
,10.025002,-4.32E-12,,
,10.027002,-4.43E-12,,
,10.029002,-4.32E-12,,
,10.031002,-4.21E-12,,
,10.033002,-4.10E-12,,
,10.035002,-4.21E-12,,
,10.037002,-4.53E-12,,
,10.039002,-4.96E-12,,
,10.041002,-5.18E-12,,
,10.043002,-5.39E-12,,
,10.045002,-5.50E-12,,
,10.047002,-5.18E-12,,
,10.049002,-5.07E-12,,
,10.051002,-4.86E-12,,
,10.053002,-5.29E-12,,
,10.055002,-5.50E-12,,
,10.057002,-5.93E-12,,
,10.059002,-6.04E-12,,
,10.061002,-6.14E-12,,
,10.063002,-6.14E-12,,
,10.065002,-6.14E-12,,
,10.067002,-6.04E-12,,
,10.069002,-6.04E-12,,
,10.071002,-6.47E-12,,
,10.073002,-6.68E-12,,
,10.075002,-7.11E-12,,
,10.077002,-7.00E-12,,
,10.079002,-7.11E-12,,
,10.081002,-6.79E-12,,
,10.083002,-6.79E-12,,
,10.085002,-6.90E-12,,
,10.087002,-7.33E-12,,
,10.089002,-7.75E-12,,
,10.091002,-8.08E-12,,
,10.093002,-8.08E-12,,
,10.095002,-8.08E-12,,
,10.097002,-7.86E-12,,
,10.099002,-7.86E-12,,
,10.101002,-7.75E-12,,
,10.103002,-7.86E-12,,
,10.105002,-7.97E-12,,
,10.107002,-8.40E-12,,
,10.109002,-8.61E-12,,
,10.111002,-8.83E-12,,
,10.113002,-8.61E-12,,
,10.115002,-8.61E-12,,
,10.117002,-8.61E-12,,
,10.119002,-8.72E-12,,
,10.121002,-9.04E-12,,
,10.123002,-9.37E-12,,
,10.125002,-9.69E-12,,
,10.127002,-9.90E-12,,
,10.129002,-9.79E-12,,
,10.131002,-9.69E-12,,
,10.133002,-9.37E-12,,
,10.135002,-9.37E-12,,
,10.137002,-9.58E-12,,
,10.139002,-1.01E-11,,
,10.141002,-1.03E-11,,
,10.143002,-1.04E-11,,
,10.145002,-1.04E-11,,
,10.147002,-1.04E-11,,
,10.149002,-1.02E-11,,
,10.151002,-9.90E-12,,
,10.153002,-1.01E-11,,
,10.155002,-1.05E-11,,
,10.157002,-1.10E-11,,
,10.159002,-1.13E-11,,
,10.161002,-1.13E-11,,
,10.163002,-1.12E-11,,
,10.165002,-1.08E-11,,
,10.167002,-1.03E-11,,
,10.169002,-1.01E-11,,
,10.171002,-1.02E-11,,
,10.173002,-1.08E-11,,
,10.175002,-1.10E-11,,
,10.177002,-1.11E-11,,
,10.179002,-1.09E-11,,
,10.181002,-1.07E-11,,
,10.183002,-1.04E-11,,
,10.185002,-1.05E-11,,
,10.187002,-1.09E-11,,
,10.189002,-1.11E-11,,
,10.191002,-1.10E-11,,
,10.193002,-1.09E-11,,
,10.195002,-1.07E-11,,
,10.197002,-1.04E-11,,
,10.199002,-1.02E-11,,
,10.201002,-1.01E-11,,
,10.203002,-1.02E-11,,
,10.205002,-1.03E-11,,
,10.207002,-1.04E-11,,
,10.209002,-1.04E-11,,
,10.211002,-1.02E-11,,
,10.213002,-1.01E-11,,
,10.215002,-9.79E-12,,
,10.217002,-9.69E-12,,
,10.219002,-9.69E-12,,
,10.221002,-9.90E-12,,
,10.223002,-1.01E-11,,
,10.225002,-1.01E-11,,
,10.227002,-1.00E-11,,
,10.229002,-9.58E-12,,
,10.231002,-9.04E-12,,
,10.233002,-8.83E-12,,
,10.235002,-8.72E-12,,
,10.237002,-9.04E-12,,
,10.239002,-9.15E-12,,
,10.241002,-9.47E-12,,
,10.243002,-9.47E-12,,
,10.245002,-9.37E-12,,
,10.247002,-9.04E-12,,
,10.249002,-8.40E-12,,
,10.251002,-7.97E-12,,
,10.253002,-7.75E-12,,
,10.255002,-7.97E-12,,
,10.257002,-8.08E-12,,
,10.259002,-8.08E-12,,
,10.261002,-7.97E-12,,
,10.263002,-7.54E-12,,
,10.265002,-7.00E-12,,
,10.267002,-6.57E-12,,
,10.269002,-6.47E-12,,
,10.271002,-6.68E-12,,
,10.273002,-6.90E-12,,
,10.275002,-6.90E-12,,
,10.277002,-6.68E-12,,
,10.279002,-6.04E-12,,
,10.281002,-5.39E-12,,
,10.283002,-4.75E-12,,
,10.285002,-4.32E-12,,
,10.287002,-4.43E-12,,
,10.289002,-4.32E-12,,
,10.291002,-4.43E-12,,
,10.293002,-4.21E-12,,
,10.295002,-4.10E-12,,
,10.297002,-3.57E-12,,
,10.299002,-3.14E-12,,
,10.301002,-2.92E-12,,
,10.303002,-2.92E-12,,
,10.305002,-3.03E-12,,
,10.307002,-2.92E-12,,
,10.309002,-2.92E-12,,
,10.311002,-2.49E-12,,
,10.313002,-2.07E-12,,
,10.315002,-1.42E-12,,
,10.317002,-7.77E-13,,
,10.319002,-5.62E-13,,
,10.321002,-6.69E-13,,
,10.323002,-9.92E-13,,
,10.325002,-8.84E-13,,
,10.327002,-7.77E-13,,
,10.329002,-2.40E-13,,
,10.331002,1.89E-13,,
,10.333002,7.26E-13,,
,10.335002,8.34E-13,,
,10.337002,7.26E-13,,
,10.339002,5.11E-13,,
,10.341002,2.97E-13,,
,10.343002,4.04E-13,,
,10.345002,7.26E-13,,
,10.347002,1.37E-12,,
,10.349002,1.91E-12,,
,10.351002,2.12E-12,,
,10.353002,1.80E-12,,
,10.355002,1.59E-12,,
,10.357002,1.48E-12,,
,10.359002,1.59E-12,,
,10.361002,1.80E-12,,
,10.363002,2.12E-12,,
,10.365002,2.55E-12,,
,10.367002,2.77E-12,,
,10.369002,2.77E-12,,
,10.371002,2.55E-12,,
,10.373002,2.12E-12,,
,10.375002,2.23E-12,,
,10.377002,2.44E-12,,
,10.379002,2.77E-12,,
,10.381002,2.98E-12,,
,10.383002,3.30E-12,,
,10.385002,3.52E-12,,
,10.387002,3.52E-12,,
,10.389002,3.20E-12,,
,10.391002,2.87E-12,,
,10.393002,2.55E-12,,
,10.395002,2.55E-12,,
,10.397002,2.66E-12,,
,10.399002,2.87E-12,,
,10.401002,3.20E-12,,
,10.403002,3.20E-12,,
,10.405002,2.87E-12,,
,10.407002,2.44E-12,,
,10.409002,2.34E-12,,
,10.411002,2.44E-12,,
,10.413002,2.55E-12,,
,10.415002,2.77E-12,,
,10.417002,2.87E-12,,
,10.419002,2.77E-12,,
,10.421002,2.44E-12,,
,10.423002,2.23E-12,,
,10.425002,2.01E-12,,
,10.427002,2.01E-12,,
,10.429002,2.01E-12,,
,10.431002,2.23E-12,,
,10.433002,2.23E-12,,
,10.435002,2.12E-12,,
,10.437002,1.69E-12,,
,10.439002,1.48E-12,,
,10.441002,1.05E-12,,
,10.443002,8.34E-13,,
,10.445002,6.19E-13,,
,10.447002,7.26E-13,,
,10.449002,7.26E-13,,
,10.451002,7.26E-13,,
,10.453002,6.19E-13,,
,10.455002,1.89E-13,,
,10.457002,-2.40E-13,,
,10.459002,-6.69E-13,,
,10.461002,-6.69E-13,,
,10.463002,-5.62E-13,,
,10.465002,-3.47E-13,,
,10.467002,-1.33E-13,,
,10.469002,-5.62E-13,,
,10.471002,-1.10E-12,,
,10.473002,-1.85E-12,,
,10.475002,-2.17E-12,,
,10.477002,-2.39E-12,,
,10.479002,-2.17E-12,,
,10.481002,-2.17E-12,,
,10.483002,-2.07E-12,,
,10.485002,-2.28E-12,,
,10.487002,-2.71E-12,,
,10.489002,-3.25E-12,,
,10.491002,-3.57E-12,,
,10.493002,-3.57E-12,,
,10.495002,-3.46E-12,,
,10.497002,-3.57E-12,,
,10.499002,-3.46E-12,,
,10.501002,-3.57E-12,,
,10.503002,-3.78E-12,,
,10.505002,-4.32E-12,,
,10.507002,-4.75E-12,,
,10.509002,-4.96E-12,,
,10.511002,-4.86E-12,,
,10.513002,-4.75E-12,,
,10.515002,-4.64E-12,,
,10.517002,-4.53E-12,,
,10.519002,-4.64E-12,,
,10.521002,-4.86E-12,,
,10.523002,-5.29E-12,,
,10.525002,-5.72E-12,,
,10.527002,-6.04E-12,,
,10.529002,-5.93E-12,,
,10.531002,-5.72E-12,,
,10.533002,-5.50E-12,,
,10.535002,-5.72E-12,,
,10.537002,-5.93E-12,,
,10.539002,-6.04E-12,,
,10.541002,-6.36E-12,,
,10.543002,-6.57E-12,,
,10.545002,-6.79E-12,,
,10.547002,-6.25E-12,,
,10.549002,-5.93E-12,,
,10.551002,-5.82E-12,,
,10.553002,-6.25E-12,,
,10.555002,-6.79E-12,,
,10.557002,-7.11E-12,,
,10.559002,-7.22E-12,,
,10.561002,-7.00E-12,,
,10.563002,-6.68E-12,,
,10.565002,-6.36E-12,,
,10.567002,-6.14E-12,,
,10.569002,-6.14E-12,,
,10.571002,-6.47E-12,,
,10.573002,-7.00E-12,,
,10.575002,-7.43E-12,,
,10.577002,-7.54E-12,,
,10.579002,-7.11E-12,,
,10.581002,-6.68E-12,,
,10.583002,-6.25E-12,,
,10.585002,-6.14E-12,,
,10.587002,-6.36E-12,,
,10.589002,-6.57E-12,,
,10.591002,-6.79E-12,,
,10.593002,-6.90E-12,,
,10.595002,-7.00E-12,,
,10.597002,-6.68E-12,,
,10.599002,-6.14E-12,,
,10.601002,-5.93E-12,,
,10.603002,-6.25E-12,,
,10.605002,-6.68E-12,,
,10.607002,-6.79E-12,,
,10.609002,-6.68E-12,,
,10.611002,-6.36E-12,,
,10.613002,-6.14E-12,,
,10.615002,-6.04E-12,,
,10.617002,-5.82E-12,,
,10.619002,-5.61E-12,,
,10.621002,-5.61E-12,,
,10.623002,-6.14E-12,,
,10.625002,-6.57E-12,,
,10.627002,-6.68E-12,,
,10.629002,-6.47E-12,,
,10.631002,-6.14E-12,,
,10.633002,-5.82E-12,,
,10.635002,-5.93E-12,,
,10.637002,-6.25E-12,,
,10.639002,-6.57E-12,,
,10.641002,-6.57E-12,,
,10.643002,-6.68E-12,,
,10.645002,-6.68E-12,,
,10.647002,-6.47E-12,,
,10.649002,-6.04E-12,,
,10.651002,-5.93E-12,,
,10.653002,-6.04E-12,,
,10.655002,-6.47E-12,,
,10.657002,-7.11E-12,,
,10.659002,-7.54E-12,,
,10.661002,-7.75E-12,,
,10.663002,-7.43E-12,,
,10.665002,-7.22E-12,,
,10.667002,-7.11E-12,,
,10.669002,-7.11E-12,,
,10.671002,-7.65E-12,,
,10.673002,-8.08E-12,,
,10.675002,-8.51E-12,,
,10.677002,-8.29E-12,,
,10.679002,-8.18E-12,,
,10.681002,-7.75E-12,,
,10.683002,-7.75E-12,,
,10.685002,-7.65E-12,,
,10.687002,-7.97E-12,,
,10.689002,-8.40E-12,,
,10.691002,-8.72E-12,,
,10.693002,-9.04E-12,,
,10.695002,-8.83E-12,,
,10.697002,-8.72E-12,,
,10.699002,-8.40E-12,,
,10.701002,-8.40E-12,,
,10.703002,-8.40E-12,,
,10.705002,-8.72E-12,,
,10.707002,-9.04E-12,,
,10.709002,-9.26E-12,,
,10.711002,-9.26E-12,,
,10.713002,-9.15E-12,,
,10.715002,-9.04E-12,,
,10.717002,-8.72E-12,,
,10.719002,-8.61E-12,,
,10.721002,-8.83E-12,,
,10.723002,-9.26E-12,,
,10.725002,-9.58E-12,,
,10.727002,-9.58E-12,,
,10.729002,-9.58E-12,,
,10.731002,-9.15E-12,,
,10.733002,-8.83E-12,,
,10.735002,-8.83E-12,,
,10.737002,-9.04E-12,,
,10.739002,-9.37E-12,,
,10.741002,-9.37E-12,,
,10.743002,-9.47E-12,,
,10.745002,-9.26E-12,,
,10.747002,-9.15E-12,,
,10.749002,-9.04E-12,,
,10.751002,-9.15E-12,,
,10.753002,-9.04E-12,,
,10.755002,-9.26E-12,,
,10.757002,-9.47E-12,,
,10.759002,-9.69E-12,,
,10.761002,-9.37E-12,,
,10.763002,-9.15E-12,,
,10.765002,-8.94E-12,,
,10.767002,-8.61E-12,,
,10.769002,-8.61E-12,,
,10.771002,-8.72E-12,,
,10.773002,-9.37E-12,,
,10.775002,-9.26E-12,,
,10.777002,-9.37E-12,,
,10.779002,-9.04E-12,,
,10.781002,-9.04E-12,,
,10.783002,-8.94E-12,,
,10.785002,-8.94E-12,,
,10.787002,-9.04E-12,,
,10.789002,-9.15E-12,,
,10.791002,-9.37E-12,,
,10.793002,-9.47E-12,,
,10.795002,-9.26E-12,,
,10.797002,-9.04E-12,,
,10.799002,-8.83E-12,,
,10.801002,-8.72E-12,,
,10.803002,-8.61E-12,,
,10.805002,-8.94E-12,,
,10.807002,-9.47E-12,,
,10.809002,-9.79E-12,,
,10.811002,-9.90E-12,,
,10.813002,-9.58E-12,,
,10.815002,-9.26E-12,,
,10.817002,-8.83E-12,,
,10.819002,-8.94E-12,,
,10.821002,-9.37E-12,,
,10.823002,-9.79E-12,,
,10.825002,-1.01E-11,,
,10.827002,-1.01E-11,,
,10.829002,-9.90E-12,,
,10.831002,-9.47E-12,,
,10.833002,-9.26E-12,,
,10.835002,-9.26E-12,,
,10.837002,-9.58E-12,,
,10.839002,-1.00E-11,,
,10.841002,-1.02E-11,,
,10.843002,-1.04E-11,,
,10.845002,-1.01E-11,,
,10.847002,-1.00E-11,,
,10.849002,-9.58E-12,,
,10.851002,-9.58E-12,,
,10.853002,-9.47E-12,,
,10.855002,-1.00E-11,,
,10.857002,-1.03E-11,,
,10.859002,-1.08E-11,,
,10.861002,-1.04E-11,,
,10.863002,-1.04E-11,,
,10.865002,-1.00E-11,,
,10.867002,-9.90E-12,,
,10.869002,-9.79E-12,,
,10.871002,-1.02E-11,,
,10.873002,-1.07E-11,,
,10.875002,-1.10E-11,,
,10.877002,-1.10E-11,,
,10.879002,-1.08E-11,,
,10.881002,-1.05E-11,,
,10.883002,-1.03E-11,,
,10.885002,-1.02E-11,,
,10.887002,-1.04E-11,,
,10.889002,-1.07E-11,,
,10.891002,-1.10E-11,,
,10.893002,-1.12E-11,,
,10.895002,-1.14E-11,,
,10.897002,-1.15E-11,,
,10.899002,-1.13E-11,,
,10.901002,-1.14E-11,,
,10.903002,-1.16E-11,,
,10.905002,-1.19E-11,,
,10.907002,-1.24E-11,,
,10.909002,-1.26E-11,,
,10.911002,-1.29E-11,,
,10.913002,-1.28E-11,,
,10.915002,-1.28E-11,,
,10.917002,-1.26E-11,,
,10.919002,-1.28E-11,,
,10.921002,-1.31E-11,,
,10.923002,-1.36E-11,,
,10.925002,-1.39E-11,,
,10.927002,-1.41E-11,,
,10.929002,-1.43E-11,,
,10.931002,-1.43E-11,,
,10.933002,-1.43E-11,,
,10.935002,-1.45E-11,,
,10.937002,-1.49E-11,,
,10.939002,-1.55E-11,,
,10.941002,-1.58E-11,,
,10.943002,-1.60E-11,,
,10.945002,-1.62E-11,,
,10.947002,-1.65E-11,,
,10.949002,-1.66E-11,,
,10.951002,-1.66E-11,,
,10.953002,-1.70E-11,,
,10.955002,-1.75E-11,,
,10.957002,-1.81E-11,,
,10.959002,-1.83E-11,,
,10.961002,-1.85E-11,,
,10.963002,-1.87E-11,,
,10.965002,-1.86E-11,,
,10.967002,-1.85E-11,,
,10.969002,-1.87E-11,,
,10.971002,-1.93E-11,,
,10.973002,-2.01E-11,,
,10.975002,-2.03E-11,,
,10.977002,-2.04E-11,,
,10.979002,-2.02E-11,,
,10.981002,-2.01E-11,,
,10.983002,-1.99E-11,,
,10.985002,-2.01E-11,,
,10.987002,-2.03E-11,,
,10.989002,-2.07E-11,,
,10.991002,-2.10E-11,,
,10.993002,-2.13E-11,,
,10.995002,-2.13E-11,,
,10.997002,-2.11E-11,,
,10.999002,-2.10E-11,,
,11.001002,-2.10E-11,,
,11.003002,-2.13E-11,,
,11.005002,-2.17E-11,,
,11.007002,-2.21E-11,,
,11.009002,-2.21E-11,,
,11.011002,-2.20E-11,,
,11.013002,-2.16E-11,,
,11.015002,-2.14E-11,,
,11.017002,-2.11E-11,,
,11.019002,-2.12E-11,,
,11.021002,-2.13E-11,,
,11.023002,-2.14E-11,,
,11.025002,-2.15E-11,,
,11.027002,-2.16E-11,,
