5/5/2019, 5:57:21 PM ,,,
 Current Sensitivity ,1.00E-09,,,
 This file comes from It only measurement ,0.00E+00,,,
 Sampling rate ,500,,,
 Number of samples per channel ,-1,,,
 No filter from Labview , , , ,
 , ,,,
 ***End_of_Header*** ,,,,
 , Time , Current , Filtered Current , 
,0.000998,-7.34E-11,,
,0.002998,-1.46E-10,,
,0.004998,-2.18E-10,,
,0.006998,-2.17E-10,,
,0.008998,-2.15E-10,,
,0.010998,-2.14E-10,,
,0.012998,-2.13E-10,,
,0.014998,-2.12E-10,,
,0.016998,-2.12E-10,,
,0.018998,-2.11E-10,,
,0.020998,-2.09E-10,,
,0.022998,-2.08E-10,,
,0.024998,-2.07E-10,,
,0.026998,-2.06E-10,,
,0.028998,-2.05E-10,,
,0.030998,-2.04E-10,,
,0.032998,-2.03E-10,,
,0.034998,-2.03E-10,,
,0.036998,-2.02E-10,,
,0.038998,-2.00E-10,,
,0.040998,-1.99E-10,,
,0.042998,-1.98E-10,,
,0.044998,-1.97E-10,,
,0.046998,-1.96E-10,,
,0.048998,-1.96E-10,,
,0.050998,-1.95E-10,,
,0.052998,-1.94E-10,,
,0.054998,-1.93E-10,,
,0.056998,-1.92E-10,,
,0.058998,-1.91E-10,,
,0.060998,-1.90E-10,,
,0.062998,-1.89E-10,,
,0.064998,-1.89E-10,,
,0.066998,-1.89E-10,,
,0.068998,-1.88E-10,,
,0.070998,-1.87E-10,,
,0.072998,-1.86E-10,,
,0.074998,-1.86E-10,,
,0.076998,-1.85E-10,,
,0.078998,-1.84E-10,,
,0.080998,-1.84E-10,,
,0.082998,-1.83E-10,,
,0.084998,-1.83E-10,,
,0.086998,-1.82E-10,,
,0.088998,-1.81E-10,,
,0.090998,-1.80E-10,,
,0.092998,-1.79E-10,,
,0.094998,-1.79E-10,,
,0.096998,-1.79E-10,,
,0.098998,-1.79E-10,,
,0.100998,-1.78E-10,,
,0.102998,-1.78E-10,,
,0.104998,-1.77E-10,,
,0.106998,-1.76E-10,,
,0.108998,-1.75E-10,,
,0.110998,-1.74E-10,,
,0.112998,-1.74E-10,,
,0.114998,-1.74E-10,,
,0.116998,-1.73E-10,,
,0.118998,-1.73E-10,,
,0.120998,-1.72E-10,,
,0.122998,-1.71E-10,,
,0.124998,-1.70E-10,,
,0.126998,-1.69E-10,,
,0.128998,-1.68E-10,,
,0.130998,-1.68E-10,,
,0.132998,-1.68E-10,,
,0.134998,-1.67E-10,,
,0.136998,-1.66E-10,,
,0.138998,-1.65E-10,,
,0.140998,-1.64E-10,,
,0.142998,-1.63E-10,,
,0.144998,-1.62E-10,,
,0.146998,-1.62E-10,,
,0.148998,-1.62E-10,,
,0.150998,-1.61E-10,,
,0.152998,-1.60E-10,,
,0.154998,-1.59E-10,,
,0.156998,-1.58E-10,,
,0.158998,-1.57E-10,,
,0.160998,-1.55E-10,,
,0.162998,-1.55E-10,,
,0.164998,-1.55E-10,,
,0.166998,-1.54E-10,,
,0.168998,-1.54E-10,,
,0.170998,-1.53E-10,,
,0.172998,-1.52E-10,,
,0.174998,-1.50E-10,,
,0.176998,-1.49E-10,,
,0.178998,-1.48E-10,,
,0.180998,-1.48E-10,,
,0.182998,-1.47E-10,,
,0.184998,-1.46E-10,,
,0.186998,-1.45E-10,,
,0.188998,-1.44E-10,,
,0.190998,-1.42E-10,,
,0.192998,-1.41E-10,,
,0.194998,-1.40E-10,,
,0.196998,-1.40E-10,,
,0.198998,-1.40E-10,,
,0.200998,-1.39E-10,,
,0.202998,-1.38E-10,,
,0.204998,-1.37E-10,,
,0.206998,-1.36E-10,,
,0.208998,-1.35E-10,,
,0.210998,-1.34E-10,,
,0.212998,-1.33E-10,,
,0.214998,-1.33E-10,,
,0.216998,-1.32E-10,,
,0.218998,-1.32E-10,,
,0.220998,-1.32E-10,,
,0.222998,-1.31E-10,,
,0.224998,-1.30E-10,,
,0.226998,-1.29E-10,,
,0.228998,-1.28E-10,,
,0.230998,-1.28E-10,,
,0.232998,-1.28E-10,,
,0.234998,-1.28E-10,,
,0.236998,-1.27E-10,,
,0.238998,-1.27E-10,,
,0.240998,-1.26E-10,,
,0.242998,-1.25E-10,,
,0.244998,-1.25E-10,,
,0.246998,-1.25E-10,,
,0.248998,-1.24E-10,,
,0.250998,-1.24E-10,,
,0.252998,-1.23E-10,,
,0.254998,-1.23E-10,,
,0.256998,-1.22E-10,,
,0.258998,-1.21E-10,,
,0.260998,-1.20E-10,,
,0.262998,-1.20E-10,,
,0.264998,-1.20E-10,,
,0.266998,-1.20E-10,,
,0.268998,-1.20E-10,,
,0.270998,-1.19E-10,,
,0.272998,-1.18E-10,,
,0.274998,-1.17E-10,,
,0.276998,-1.16E-10,,
,0.278998,-1.16E-10,,
,0.280998,-1.16E-10,,
,0.282998,-1.15E-10,,
,0.284998,-1.15E-10,,
,0.286998,-1.14E-10,,
,0.288998,-1.13E-10,,
,0.290998,-1.12E-10,,
,0.292998,-1.11E-10,,
,0.294998,-1.10E-10,,
,0.296998,-1.09E-10,,
,0.298998,-1.09E-10,,
,0.300998,-1.08E-10,,
,0.302998,-1.08E-10,,
,0.304998,-1.07E-10,,
,0.306998,-1.05E-10,,
,0.308998,-1.04E-10,,
,0.310998,-1.03E-10,,
,0.312998,-1.03E-10,,
,0.314998,-1.03E-10,,
,0.316998,-1.02E-10,,
,0.318998,-1.01E-10,,
,0.320998,-1.00E-10,,
,0.322998,-9.89E-11,,
,0.324998,-9.78E-11,,
,0.326998,-9.66E-11,,
,0.328998,-9.63E-11,,
,0.330998,-9.61E-11,,
,0.332998,-9.60E-11,,
,0.334998,-9.56E-11,,
,0.336998,-9.48E-11,,
,0.338998,-9.40E-11,,
,0.340998,-9.28E-11,,
,0.342998,-9.17E-11,,
,0.344998,-9.11E-11,,
,0.346998,-9.08E-11,,
,0.348998,-9.10E-11,,
,0.350998,-9.05E-11,,
,0.352998,-8.98E-11,,
,0.354998,-8.87E-11,,
,0.356998,-8.79E-11,,
,0.358998,-8.70E-11,,
,0.360998,-8.61E-11,,
,0.362998,-8.54E-11,,
,0.364998,-8.53E-11,,
,0.366998,-8.53E-11,,
,0.368998,-8.51E-11,,
,0.370998,-8.44E-11,,
,0.372998,-8.35E-11,,
,0.374998,-8.26E-11,,
,0.376998,-8.17E-11,,
,0.378998,-8.11E-11,,
,0.380998,-8.08E-11,,
,0.382998,-8.04E-11,,
,0.384998,-8.00E-11,,
,0.386998,-7.94E-11,,
,0.388998,-7.82E-11,,
,0.390998,-7.71E-11,,
,0.392998,-7.58E-11,,
,0.394998,-7.53E-11,,
,0.396998,-7.49E-11,,
,0.398998,-7.46E-11,,
,0.400998,-7.43E-11,,
,0.402998,-7.37E-11,,
,0.404998,-7.29E-11,,
,0.406998,-7.21E-11,,
,0.408998,-7.13E-11,,
,0.410998,-7.03E-11,,
,0.412998,-6.97E-11,,
,0.414998,-6.93E-11,,
,0.416998,-6.91E-11,,
,0.418998,-6.84E-11,,
,0.420998,-6.76E-11,,
,0.422998,-6.67E-11,,
,0.424998,-6.58E-11,,
,0.426998,-6.52E-11,,
,0.428998,-6.50E-11,,
,0.430998,-6.51E-11,,
,0.432998,-6.51E-11,,
,0.434998,-6.47E-11,,
,0.436998,-6.41E-11,,
,0.438998,-6.34E-11,,
,0.440998,-6.25E-11,,
,0.442998,-6.15E-11,,
,0.444998,-6.10E-11,,
,0.446998,-6.10E-11,,
,0.448998,-6.11E-11,,
,0.450998,-6.11E-11,,
,0.452998,-6.07E-11,,
,0.454998,-6.04E-11,,
,0.456998,-5.99E-11,,
,0.458998,-5.97E-11,,
,0.460998,-5.95E-11,,
,0.462998,-5.96E-11,,
,0.464998,-5.99E-11,,
,0.466998,-6.05E-11,,
,0.468998,-6.07E-11,,
,0.470998,-6.04E-11,,
,0.472998,-5.97E-11,,
,0.474998,-5.93E-11,,
,0.476998,-5.94E-11,,
,0.478998,-5.97E-11,,
,0.480998,-6.03E-11,,
,0.482998,-6.09E-11,,
,0.484998,-6.14E-11,,
,0.486998,-6.16E-11,,
,0.488998,-6.15E-11,,
,0.490998,-6.13E-11,,
,0.492998,-6.12E-11,,
,0.494998,-6.15E-11,,
,0.496998,-6.22E-11,,
,0.498998,-6.30E-11,,
,0.500998,-6.36E-11,,
,0.502998,-6.40E-11,,
,0.504998,-6.42E-11,,
,0.506998,-6.43E-11,,
,0.508998,-6.47E-11,,
,0.510998,-6.49E-11,,
,0.512998,-6.54E-11,,
,0.514998,-6.57E-11,,
,0.516998,-6.65E-11,,
,0.518998,-6.69E-11,,
,0.520998,-6.72E-11,,
,0.522998,-6.71E-11,,
,0.524998,-6.70E-11,,
,0.526998,-6.72E-11,,
,0.528998,-6.77E-11,,
,0.530998,-6.85E-11,,
,0.532998,-6.93E-11,,
,0.534998,-7.00E-11,,
,0.536998,-7.05E-11,,
,0.538998,-7.08E-11,,
,0.540998,-7.07E-11,,
,0.542998,-7.06E-11,,
,0.544998,-7.05E-11,,
,0.546998,-7.10E-11,,
,0.548998,-7.16E-11,,
,0.550998,-7.23E-11,,
,0.552998,-7.24E-11,,
,0.554998,-7.24E-11,,
,0.556998,-7.21E-11,,
,0.558998,-7.18E-11,,
,0.560998,-7.17E-11,,
,0.562998,-7.24E-11,,
,0.564998,-7.29E-11,,
,0.566998,-7.36E-11,,
,0.568998,-7.39E-11,,
,0.570998,-7.42E-11,,
,0.572998,-7.42E-11,,
,0.574998,-7.40E-11,,
,0.576998,-7.39E-11,,
,0.578998,-7.43E-11,,
,0.580998,-7.50E-11,,
,0.582998,-7.59E-11,,
,0.584998,-7.64E-11,,
,0.586998,-7.66E-11,,
,0.588998,-7.64E-11,,
,0.590998,-7.61E-11,,
,0.592998,-7.59E-11,,
,0.594998,-7.64E-11,,
,0.596998,-7.70E-11,,
,0.598998,-7.80E-11,,
,0.600998,-7.85E-11,,
,0.602998,-7.90E-11,,
,0.604998,-7.93E-11,,
,0.606998,-7.94E-11,,
,0.608998,-7.95E-11,,
,0.610998,-7.98E-11,,
,0.612998,-8.04E-11,,
,0.614998,-8.12E-11,,
,0.616998,-8.19E-11,,
,0.618998,-8.26E-11,,
,0.620998,-8.30E-11,,
,0.622998,-8.30E-11,,
,0.624998,-8.29E-11,,
,0.626998,-8.30E-11,,
,0.628998,-8.37E-11,,
,0.630998,-8.47E-11,,
,0.632998,-8.56E-11,,
,0.634998,-8.61E-11,,
,0.636998,-8.64E-11,,
,0.638998,-8.67E-11,,
,0.640998,-8.67E-11,,
,0.642998,-8.68E-11,,
,0.644998,-8.72E-11,,
,0.646998,-8.82E-11,,
,0.648998,-8.91E-11,,
,0.650998,-8.98E-11,,
,0.652998,-9.02E-11,,
,0.654998,-9.04E-11,,
,0.656998,-9.08E-11,,
,0.658998,-9.12E-11,,
,0.660998,-9.13E-11,,
,0.662998,-9.17E-11,,
,0.664998,-9.25E-11,,
,0.666998,-9.34E-11,,
,0.668998,-9.40E-11,,
,0.670998,-9.42E-11,,
,0.672998,-9.42E-11,,
,0.674998,-9.43E-11,,
,0.676998,-9.47E-11,,
,0.678998,-9.53E-11,,
,0.680998,-9.62E-11,,
,0.682998,-9.69E-11,,
,0.684998,-9.76E-11,,
,0.686998,-9.77E-11,,
,0.688998,-9.76E-11,,
,0.690998,-9.74E-11,,
,0.692998,-9.72E-11,,
,0.694998,-9.73E-11,,
,0.696998,-9.77E-11,,
,0.698998,-9.84E-11,,
,0.700998,-9.92E-11,,
,0.702998,-9.94E-11,,
,0.704998,-9.95E-11,,
,0.706998,-9.92E-11,,
,0.708998,-9.90E-11,,
,0.710998,-9.89E-11,,
,0.712998,-9.94E-11,,
,0.714998,-1.00E-10,,
,0.716998,-1.01E-10,,
,0.718998,-1.01E-10,,
,0.720998,-1.01E-10,,
,0.722998,-1.00E-10,,
,0.724998,-1.00E-10,,
,0.726998,-1.00E-10,,
,0.728998,-1.00E-10,,
,0.730998,-1.01E-10,,
,0.732998,-1.01E-10,,
,0.734998,-1.01E-10,,
,0.736998,-1.02E-10,,
,0.738998,-1.02E-10,,
,0.740998,-1.01E-10,,
,0.742998,-1.01E-10,,
,0.744998,-1.01E-10,,
,0.746998,-1.01E-10,,
,0.748998,-1.02E-10,,
,0.750998,-1.02E-10,,
,0.752998,-1.02E-10,,
,0.754998,-1.02E-10,,
,0.756998,-1.02E-10,,
,0.758998,-1.02E-10,,
,0.760998,-1.02E-10,,
,0.762998,-1.02E-10,,
,0.764998,-1.03E-10,,
,0.766998,-1.03E-10,,
,0.768998,-1.04E-10,,
,0.770998,-1.04E-10,,
,0.772998,-1.04E-10,,
,0.774998,-1.04E-10,,
,0.776998,-1.04E-10,,
,0.778998,-1.04E-10,,
,0.780998,-1.04E-10,,
,0.782998,-1.05E-10,,
,0.784998,-1.05E-10,,
,0.786998,-1.06E-10,,
,0.788998,-1.06E-10,,
,0.790998,-1.05E-10,,
,0.792998,-1.05E-10,,
,0.794998,-1.05E-10,,
,0.796998,-1.06E-10,,
,0.798998,-1.07E-10,,
,0.800998,-1.07E-10,,
,0.802998,-1.08E-10,,
,0.804998,-1.08E-10,,
,0.806998,-1.08E-10,,
,0.808998,-1.08E-10,,
,0.810998,-1.08E-10,,
,0.812998,-1.09E-10,,
,0.814998,-1.10E-10,,
,0.816998,-1.10E-10,,
,0.818998,-1.11E-10,,
,0.820998,-1.11E-10,,
,0.822998,-1.11E-10,,
,0.824998,-1.11E-10,,
,0.826998,-1.11E-10,,
,0.828998,-1.11E-10,,
,0.830998,-1.12E-10,,
,0.832998,-1.12E-10,,
,0.834998,-1.13E-10,,
,0.836998,-1.13E-10,,
,0.838998,-1.14E-10,,
,0.840998,-1.14E-10,,
,0.842998,-1.14E-10,,
,0.844998,-1.15E-10,,
,0.846998,-1.15E-10,,
,0.848998,-1.16E-10,,
,0.850998,-1.17E-10,,
,0.852998,-1.17E-10,,
,0.854998,-1.17E-10,,
,0.856998,-1.18E-10,,
,0.858998,-1.18E-10,,
,0.860998,-1.18E-10,,
,0.862998,-1.19E-10,,
,0.864998,-1.20E-10,,
,0.866998,-1.21E-10,,
,0.868998,-1.22E-10,,
,0.870998,-1.22E-10,,
,0.872998,-1.23E-10,,
,0.874998,-1.23E-10,,
,0.876998,-1.24E-10,,
,0.878998,-1.24E-10,,
,0.880998,-1.25E-10,,
,0.882998,-1.27E-10,,
,0.884998,-1.28E-10,,
,0.886998,-1.28E-10,,
,0.888998,-1.29E-10,,
,0.890998,-1.29E-10,,
,0.892998,-1.30E-10,,
,0.894998,-1.31E-10,,
,0.896998,-1.33E-10,,
,0.898998,-1.34E-10,,
,0.900998,-1.35E-10,,
,0.902998,-1.36E-10,,
,0.904998,-1.38E-10,,
,0.906998,-1.38E-10,,
,0.908998,-1.40E-10,,
,0.910998,-1.41E-10,,
,0.912998,-1.42E-10,,
,0.914998,-1.44E-10,,
,0.916998,-1.45E-10,,
,0.918998,-1.47E-10,,
,0.920998,-1.48E-10,,
,0.922998,-1.49E-10,,
,0.924998,-1.50E-10,,
,0.926998,-1.51E-10,,
,0.928998,-1.52E-10,,
,0.930998,-1.54E-10,,
,0.932998,-1.56E-10,,
,0.934998,-1.57E-10,,
,0.936998,-1.59E-10,,
,0.938998,-1.60E-10,,
,0.940998,-1.61E-10,,
,0.942998,-1.62E-10,,
,0.944998,-1.64E-10,,
,0.946998,-1.65E-10,,
,0.948998,-1.67E-10,,
,0.950998,-1.69E-10,,
,0.952998,-1.70E-10,,
,0.954998,-1.72E-10,,
,0.956998,-1.73E-10,,
,0.958998,-1.74E-10,,
,0.960998,-1.75E-10,,
,0.962998,-1.77E-10,,
,0.964998,-1.79E-10,,
,0.966998,-1.81E-10,,
,0.968998,-1.83E-10,,
,0.970998,-1.85E-10,,
,0.972998,-1.87E-10,,
,0.974998,-1.88E-10,,
,0.976998,-1.90E-10,,
,0.978998,-1.92E-10,,
,0.980998,-1.94E-10,,
,0.982998,-1.96E-10,,
,0.984998,-1.99E-10,,
,0.986998,-2.01E-10,,
,0.988998,-2.02E-10,,
,0.990998,-2.04E-10,,
,0.992998,-2.06E-10,,
,0.994998,-2.08E-10,,
,0.996998,-2.11E-10,,
,0.998998,-2.13E-10,,
,1.000998,-2.16E-10,,
,1.002998,-2.18E-10,,
,1.004998,-2.20E-10,,
,1.006998,-2.23E-10,,
,1.008998,-2.25E-10,,
,1.010998,-2.27E-10,,
,1.012998,-2.30E-10,,
,1.014998,-2.33E-10,,
,1.016998,-2.36E-10,,
,1.018998,-2.38E-10,,
,1.020998,-2.41E-10,,
,1.022998,-2.43E-10,,
,1.024998,-2.45E-10,,
,1.026998,-2.47E-10,,
,1.028998,-2.50E-10,,
,1.030998,-2.53E-10,,
,1.032998,-2.56E-10,,
,1.034998,-2.59E-10,,
,1.036998,-2.62E-10,,
,1.038998,-2.65E-10,,
,1.040998,-2.67E-10,,
,1.042998,-2.70E-10,,
,1.044998,-2.72E-10,,
,1.046998,-2.76E-10,,
,1.048998,-2.79E-10,,
,1.050998,-2.82E-10,,
,1.052998,-2.85E-10,,
,1.054998,-2.87E-10,,
,1.056998,-2.90E-10,,
,1.058998,-2.92E-10,,
,1.060998,-2.95E-10,,
,1.062998,-2.98E-10,,
,1.064998,-3.02E-10,,
,1.066998,-3.05E-10,,
,1.068998,-3.09E-10,,
,1.070998,-3.12E-10,,
,1.072998,-3.15E-10,,
,1.074998,-3.17E-10,,
,1.076998,-3.20E-10,,
,1.078998,-3.24E-10,,
,1.080998,-3.27E-10,,
,1.082998,-3.31E-10,,
,1.084998,-3.35E-10,,
,1.086998,-3.38E-10,,
,1.088998,-3.41E-10,,
,1.090998,-3.44E-10,,
,1.092998,-3.47E-10,,
,1.094998,-3.51E-10,,
,1.096998,-3.54E-10,,
,1.098998,-3.58E-10,,
,1.100998,-3.62E-10,,
,1.102998,-3.66E-10,,
,1.104998,-3.70E-10,,
,1.106998,-3.73E-10,,
,1.108998,-3.77E-10,,
,1.110998,-3.80E-10,,
,1.112998,-3.84E-10,,
,1.114998,-3.89E-10,,
,1.116998,-3.93E-10,,
,1.118998,-3.97E-10,,
,1.120998,-4.01E-10,,
,1.122998,-4.05E-10,,
,1.124998,-4.08E-10,,
,1.126998,-4.12E-10,,
,1.128998,-4.17E-10,,
,1.130998,-4.22E-10,,
,1.132998,-4.26E-10,,
,1.134998,-4.31E-10,,
,1.136998,-4.35E-10,,
,1.138998,-4.39E-10,,
,1.140998,-4.43E-10,,
,1.142998,-4.47E-10,,
,1.144998,-4.51E-10,,
,1.146998,-4.56E-10,,
,1.148998,-4.61E-10,,
,1.150998,-4.65E-10,,
,1.152998,-4.70E-10,,
,1.154998,-4.74E-10,,
,1.156998,-4.78E-10,,
,1.158998,-4.82E-10,,
,1.160998,-4.86E-10,,
,1.162998,-4.91E-10,,
,1.164998,-4.96E-10,,
,1.166998,-5.01E-10,,
,1.168998,-5.05E-10,,
,1.170998,-5.09E-10,,
,1.172998,-5.14E-10,,
,1.174998,-5.17E-10,,
,1.176998,-5.22E-10,,
,1.178998,-5.26E-10,,
,1.180998,-5.31E-10,,
,1.182998,-5.36E-10,,
,1.184998,-5.41E-10,,
,1.186998,-5.46E-10,,
,1.188998,-5.50E-10,,
,1.190998,-5.54E-10,,
,1.192998,-5.58E-10,,
,1.194998,-5.63E-10,,
,1.196998,-5.68E-10,,
,1.198998,-5.73E-10,,
,1.200998,-5.79E-10,,
,1.202998,-5.84E-10,,
,1.204998,-5.89E-10,,
,1.206998,-5.93E-10,,
,1.208998,-5.98E-10,,
,1.210998,-6.03E-10,,
,1.212998,-6.09E-10,,
,1.214998,-6.14E-10,,
,1.216998,-6.20E-10,,
,1.218998,-6.25E-10,,
,1.220998,-6.31E-10,,
,1.222998,-6.36E-10,,
,1.224998,-6.41E-10,,
,1.226998,-6.46E-10,,
,1.228998,-6.52E-10,,
,1.230998,-6.58E-10,,
,1.232998,-6.64E-10,,
,1.234998,-6.70E-10,,
,1.236998,-6.76E-10,,
,1.238998,-6.82E-10,,
,1.240998,-6.88E-10,,
,1.242998,-6.94E-10,,
,1.244998,-7.00E-10,,
,1.246998,-7.06E-10,,
,1.248998,-7.13E-10,,
,1.250998,-7.20E-10,,
,1.252998,-7.26E-10,,
,1.254998,-7.31E-10,,
,1.256998,-7.37E-10,,
,1.258998,-7.43E-10,,
,1.260998,-7.49E-10,,
,1.262998,-7.56E-10,,
,1.264998,-7.62E-10,,
,1.266998,-7.69E-10,,
,1.268998,-7.75E-10,,
,1.270998,-7.81E-10,,
,1.272998,-7.87E-10,,
,1.274998,-7.93E-10,,
,1.276998,-7.99E-10,,
,1.278998,-8.04E-10,,
,1.280998,-8.10E-10,,
,1.282998,-8.17E-10,,
,1.284998,-8.22E-10,,
,1.286998,-8.28E-10,,
,1.288998,-8.33E-10,,
,1.290998,-8.39E-10,,
,1.292998,-8.44E-10,,
,1.294998,-8.50E-10,,
,1.296998,-8.56E-10,,
,1.298998,-8.63E-10,,
,1.300998,-8.69E-10,,
,1.302998,-8.75E-10,,
,1.304998,-8.80E-10,,
,1.306998,-8.85E-10,,
,1.308998,-8.91E-10,,
,1.310998,-8.96E-10,,
,1.312998,-9.02E-10,,
,1.314998,-9.07E-10,,
,1.316998,-9.13E-10,,
,1.318998,-9.19E-10,,
,1.320998,-9.24E-10,,
,1.322998,-9.30E-10,,
,1.324998,-9.35E-10,,
,1.326998,-9.40E-10,,
,1.328998,-9.45E-10,,
,1.330998,-9.50E-10,,
,1.332998,-9.56E-10,,
,1.334998,-9.61E-10,,
,1.336998,-9.66E-10,,
,1.338998,-9.71E-10,,
,1.340998,-9.76E-10,,
,1.342998,-9.80E-10,,
,1.344998,-9.85E-10,,
,1.346998,-9.90E-10,,
,1.348998,-9.95E-10,,
,1.350998,-1.00E-09,,
,1.352998,-1.00E-09,,
,1.354998,-1.01E-09,,
,1.356998,-1.01E-09,,
,1.358998,-1.01E-09,,
,1.360998,-1.02E-09,,
,1.362998,-1.02E-09,,
,1.364998,-1.03E-09,,
,1.366998,-1.03E-09,,
,1.368998,-1.03E-09,,
,1.370998,-1.04E-09,,
,1.372998,-1.04E-09,,
,1.374998,-1.04E-09,,
,1.376998,-1.04E-09,,
,1.378998,-1.04E-09,,
,1.380998,-1.05E-09,,
,1.382998,-1.05E-09,,
,1.384998,-1.05E-09,,
,1.386998,-1.05E-09,,
,1.388998,-1.05E-09,,
,1.390998,-1.05E-09,,
,1.392998,-1.05E-09,,
,1.394998,-1.05E-09,,
,1.396998,-1.05E-09,,
,1.398998,-1.05E-09,,
,1.400998,-1.05E-09,,
,1.402998,-1.05E-09,,
,1.404998,-1.05E-09,,
,1.406998,-1.05E-09,,
,1.408998,-1.05E-09,,
,1.410998,-1.05E-09,,
,1.412998,-1.05E-09,,
,1.414998,-1.04E-09,,
,1.416998,-1.04E-09,,
,1.418998,-1.04E-09,,
,1.420998,-1.04E-09,,
,1.422998,-1.04E-09,,
,1.424998,-1.03E-09,,
,1.426998,-1.03E-09,,
,1.428998,-1.03E-09,,
,1.430998,-1.02E-09,,
,1.432998,-1.02E-09,,
,1.434998,-1.02E-09,,
,1.436998,-1.02E-09,,
,1.438998,-1.01E-09,,
,1.440998,-1.01E-09,,
,1.442998,-1.00E-09,,
,1.444998,-1.00E-09,,
,1.446998,-9.98E-10,,
,1.448998,-9.95E-10,,
,1.450998,-9.92E-10,,
,1.452998,-9.88E-10,,
,1.454998,-9.84E-10,,
,1.456998,-9.80E-10,,
,1.458998,-9.76E-10,,
,1.460998,-9.72E-10,,
,1.462998,-9.68E-10,,
,1.464998,-9.65E-10,,
,1.466998,-9.61E-10,,
,1.468998,-9.57E-10,,
,1.470998,-9.54E-10,,
,1.472998,-9.50E-10,,
,1.474998,-9.46E-10,,
,1.476998,-9.42E-10,,
,1.478998,-9.38E-10,,
,1.480998,-9.34E-10,,
,1.482998,-9.31E-10,,
,1.484998,-9.27E-10,,
,1.486998,-9.23E-10,,
,1.488998,-9.19E-10,,
,1.490998,-9.14E-10,,
,1.492998,-9.09E-10,,
,1.494998,-9.05E-10,,
,1.496998,-9.01E-10,,
,1.498998,-8.98E-10,,
,1.500998,-8.94E-10,,
,1.502998,-8.90E-10,,
,1.504998,-8.85E-10,,
,1.506998,-8.81E-10,,
,1.508998,-8.76E-10,,
,1.510998,-8.71E-10,,
,1.512998,-8.67E-10,,
,1.514998,-8.63E-10,,
,1.516998,-8.58E-10,,
,1.518998,-8.54E-10,,
,1.520998,-8.49E-10,,
,1.522998,-8.43E-10,,
,1.524998,-8.37E-10,,
,1.526998,-8.31E-10,,
,1.528998,-8.26E-10,,
,1.530998,-8.21E-10,,
,1.532998,-8.15E-10,,
,1.534998,-8.10E-10,,
,1.536998,-8.04E-10,,
,1.538998,-7.98E-10,,
,1.540998,-7.92E-10,,
,1.542998,-7.86E-10,,
,1.544998,-7.80E-10,,
,1.546998,-7.73E-10,,
,1.548998,-7.67E-10,,
,1.550998,-7.61E-10,,
,1.552998,-7.55E-10,,
,1.554998,-7.48E-10,,
,1.556998,-7.42E-10,,
,1.558998,-7.35E-10,,
,1.560998,-7.28E-10,,
,1.562998,-7.22E-10,,
,1.564998,-7.16E-10,,
,1.566998,-7.10E-10,,
,1.568998,-7.03E-10,,
,1.570998,-6.97E-10,,
,1.572998,-6.91E-10,,
,1.574998,-6.84E-10,,
,1.576998,-6.77E-10,,
,1.578998,-6.70E-10,,
,1.580998,-6.64E-10,,
,1.582998,-6.58E-10,,
,1.584998,-6.52E-10,,
,1.586998,-6.46E-10,,
,1.588998,-6.40E-10,,
,1.590998,-6.33E-10,,
,1.592998,-6.26E-10,,
,1.594998,-6.20E-10,,
,1.596998,-6.14E-10,,
,1.598998,-6.09E-10,,
,1.600998,-6.03E-10,,
,1.602998,-5.97E-10,,
,1.604998,-5.91E-10,,
,1.606998,-5.85E-10,,
,1.608998,-5.79E-10,,
,1.610998,-5.72E-10,,
,1.612998,-5.66E-10,,
,1.614998,-5.61E-10,,
,1.616998,-5.55E-10,,
,1.618998,-5.50E-10,,
,1.620998,-5.44E-10,,
,1.622998,-5.37E-10,,
,1.624998,-5.31E-10,,
,1.626998,-5.24E-10,,
,1.628998,-5.19E-10,,
,1.630998,-5.13E-10,,
,1.632998,-5.07E-10,,
,1.634998,-5.02E-10,,
,1.636998,-4.96E-10,,
,1.638998,-4.90E-10,,
,1.640998,-4.83E-10,,
,1.642998,-4.77E-10,,
,1.644998,-4.72E-10,,
,1.646998,-4.66E-10,,
,1.648998,-4.61E-10,,
,1.650998,-4.55E-10,,
,1.652998,-4.50E-10,,
,1.654998,-4.44E-10,,
,1.656998,-4.38E-10,,
,1.658998,-4.32E-10,,
,1.660998,-4.26E-10,,
,1.662998,-4.21E-10,,
,1.664998,-4.16E-10,,
,1.666998,-4.11E-10,,
,1.668998,-4.06E-10,,
,1.670998,-4.01E-10,,
,1.672998,-3.95E-10,,
,1.674998,-3.90E-10,,
,1.676998,-3.85E-10,,
,1.678998,-3.80E-10,,
,1.680998,-3.75E-10,,
,1.682998,-3.70E-10,,
,1.684998,-3.66E-10,,
,1.686998,-3.61E-10,,
,1.688998,-3.55E-10,,
,1.690998,-3.50E-10,,
,1.692998,-3.45E-10,,
,1.694998,-3.41E-10,,
,1.696998,-3.36E-10,,
,1.698998,-3.32E-10,,
,1.700998,-3.27E-10,,
,1.702998,-3.23E-10,,
,1.704998,-3.18E-10,,
,1.706998,-3.14E-10,,
,1.708998,-3.08E-10,,
,1.710998,-3.03E-10,,
,1.712998,-2.98E-10,,
,1.714998,-2.94E-10,,
,1.716998,-2.89E-10,,
,1.718998,-2.85E-10,,
,1.720998,-2.80E-10,,
,1.722998,-2.75E-10,,
,1.724998,-2.70E-10,,
,1.726998,-2.64E-10,,
,1.728998,-2.59E-10,,
,1.730998,-2.55E-10,,
,1.732998,-2.50E-10,,
,1.734998,-2.45E-10,,
,1.736998,-2.41E-10,,
,1.738998,-2.36E-10,,
,1.740998,-2.31E-10,,
,1.742998,-2.26E-10,,
,1.744998,-2.21E-10,,
,1.746998,-2.16E-10,,
,1.748998,-2.12E-10,,
,1.750998,-2.07E-10,,
,1.752998,-2.03E-10,,
,1.754998,-1.98E-10,,
,1.756998,-1.93E-10,,
,1.758998,-1.88E-10,,
,1.760998,-1.83E-10,,
,1.762998,-1.78E-10,,
,1.764998,-1.74E-10,,
,1.766998,-1.69E-10,,
,1.768998,-1.65E-10,,
,1.770998,-1.60E-10,,
,1.772998,-1.55E-10,,
,1.774998,-1.51E-10,,
,1.776998,-1.46E-10,,
,1.778998,-1.41E-10,,
,1.780998,-1.37E-10,,
,1.782998,-1.33E-10,,
,1.784998,-1.29E-10,,
,1.786998,-1.24E-10,,
,1.788998,-1.20E-10,,
,1.790998,-1.15E-10,,
,1.792998,-1.10E-10,,
,1.794998,-1.06E-10,,
,1.796998,-1.02E-10,,
,1.798998,-9.83E-11,,
,1.800998,-9.45E-11,,
,1.802998,-9.05E-11,,
,1.804998,-8.66E-11,,
,1.806998,-8.26E-11,,
,1.808998,-7.85E-11,,
,1.810998,-7.46E-11,,
,1.812998,-7.12E-11,,
,1.814998,-6.82E-11,,
,1.816998,-6.53E-11,,
,1.818998,-6.22E-11,,
,1.820998,-5.89E-11,,
,1.822998,-5.53E-11,,
,1.824998,-5.19E-11,,
,1.826998,-4.84E-11,,
,1.828998,-4.55E-11,,
,1.830998,-4.29E-11,,
,1.832998,-4.06E-11,,
,1.834998,-3.84E-11,,
,1.836998,-3.58E-11,,
,1.838998,-3.31E-11,,
,1.840998,-3.01E-11,,
,1.842998,-2.74E-11,,
,1.844998,-2.47E-11,,
,1.846998,-2.25E-11,,
,1.848998,-2.02E-11,,
,1.850998,-1.81E-11,,
,1.852998,-1.56E-11,,
,1.854998,-1.31E-11,,
,1.856998,-1.03E-11,,
,1.858998,-7.43E-12,,
,1.860998,-4.64E-12,,
,1.862998,-2.17E-12,,
,1.864998,-2.40E-13,,
,1.866998,1.80E-12,,
,1.868998,4.16E-12,,
,1.870998,6.95E-12,,
,1.872998,9.74E-12,,
,1.874998,1.26E-11,,
,1.876998,1.55E-11,,
,1.878998,1.83E-11,,
,1.880998,2.10E-11,,
,1.882998,2.35E-11,,
,1.884998,2.60E-11,,
,1.886998,2.86E-11,,
,1.888998,3.16E-11,,
,1.890998,3.51E-11,,
,1.892998,3.81E-11,,
,1.894998,4.08E-11,,
,1.896998,4.32E-11,,
,1.898998,4.56E-11,,
,1.900998,4.82E-11,,
,1.902998,5.09E-11,,
,1.904998,5.40E-11,,
,1.906998,5.71E-11,,
,1.908998,6.03E-11,,
,1.910998,6.34E-11,,
,1.912998,6.63E-11,,
,1.914998,6.87E-11,,
,1.916998,7.08E-11,,
,1.918998,7.31E-11,,
,1.920998,7.60E-11,,
,1.922998,7.88E-11,,
,1.924998,8.20E-11,,
,1.926998,8.50E-11,,
,1.928998,8.79E-11,,
,1.930998,9.02E-11,,
,1.932998,9.22E-11,,
,1.934998,9.43E-11,,
,1.936998,9.69E-11,,
,1.938998,9.92E-11,,
,1.940998,1.02E-10,,
,1.942998,1.05E-10,,
,1.944998,1.07E-10,,
,1.946998,1.09E-10,,
,1.948998,1.11E-10,,
,1.950998,1.13E-10,,
,1.952998,1.15E-10,,
,1.954998,1.17E-10,,
,1.956998,1.20E-10,,
,1.958998,1.22E-10,,
,1.960998,1.25E-10,,
,1.962998,1.27E-10,,
,1.964998,1.28E-10,,
,1.966998,1.30E-10,,
,1.968998,1.31E-10,,
,1.970998,1.34E-10,,
,1.972998,1.36E-10,,
,1.974998,1.38E-10,,
,1.976998,1.40E-10,,
,1.978998,1.42E-10,,
,1.980998,1.43E-10,,
,1.982998,1.44E-10,,
,1.984998,1.46E-10,,
,1.986998,1.48E-10,,
,1.988998,1.50E-10,,
,1.990998,1.52E-10,,
,1.992998,1.53E-10,,
,1.994998,1.55E-10,,
,1.996998,1.56E-10,,
,1.998998,1.57E-10,,
,2.000998,1.58E-10,,
,2.002998,1.60E-10,,
,2.004998,1.61E-10,,
,2.006998,1.62E-10,,
,2.008998,1.64E-10,,
,2.010998,1.65E-10,,
,2.012998,1.65E-10,,
,2.014998,1.66E-10,,
,2.016998,1.66E-10,,
,2.018998,1.67E-10,,
,2.020998,1.68E-10,,
,2.022998,1.69E-10,,
,2.024998,1.69E-10,,
,2.026998,1.70E-10,,
,2.028998,1.70E-10,,
,2.030998,1.70E-10,,
,2.032998,1.70E-10,,
,2.034998,1.70E-10,,
,2.036998,1.70E-10,,
,2.038998,1.70E-10,,
,2.040998,1.70E-10,,
,2.042998,1.71E-10,,
,2.044998,1.71E-10,,
,2.046998,1.71E-10,,
,2.048998,1.70E-10,,
,2.050998,1.70E-10,,
,2.052998,1.69E-10,,
,2.054998,1.69E-10,,
,2.056998,1.69E-10,,
,2.058998,1.69E-10,,
,2.060998,1.69E-10,,
,2.062998,1.69E-10,,
,2.064998,1.68E-10,,
,2.066998,1.67E-10,,
,2.068998,1.66E-10,,
,2.070998,1.66E-10,,
,2.072998,1.65E-10,,
,2.074998,1.65E-10,,
,2.076998,1.65E-10,,
,2.078998,1.64E-10,,
,2.080998,1.63E-10,,
,2.082998,1.62E-10,,
,2.084998,1.61E-10,,
,2.086998,1.60E-10,,
,2.088998,1.60E-10,,
,2.090998,1.59E-10,,
,2.092998,1.59E-10,,
,2.094998,1.58E-10,,
,2.096998,1.57E-10,,
,2.098998,1.56E-10,,
,2.100998,1.55E-10,,
,2.102998,1.53E-10,,
,2.104998,1.52E-10,,
,2.106998,1.52E-10,,
,2.108998,1.50E-10,,
,2.110998,1.49E-10,,
,2.112998,1.48E-10,,
,2.114998,1.47E-10,,
,2.116998,1.45E-10,,
,2.118998,1.43E-10,,
,2.120998,1.42E-10,,
,2.122998,1.41E-10,,
,2.124998,1.40E-10,,
,2.126998,1.39E-10,,
,2.128998,1.38E-10,,
,2.130998,1.36E-10,,
,2.132998,1.34E-10,,
,2.134998,1.33E-10,,
,2.136998,1.31E-10,,
,2.138998,1.30E-10,,
,2.140998,1.28E-10,,
,2.142998,1.27E-10,,
,2.144998,1.26E-10,,
,2.146998,1.24E-10,,
,2.148998,1.22E-10,,
,2.150998,1.20E-10,,
,2.152998,1.18E-10,,
,2.154998,1.17E-10,,
,2.156998,1.16E-10,,
,2.158998,1.15E-10,,
,2.160998,1.14E-10,,
,2.162998,1.13E-10,,
,2.164998,1.11E-10,,
,2.166998,1.09E-10,,
,2.168998,1.08E-10,,
,2.170998,1.07E-10,,
,2.172998,1.06E-10,,
,2.174998,1.05E-10,,
,2.176998,1.04E-10,,
,2.178998,1.03E-10,,
,2.180998,1.02E-10,,
,2.182998,1.01E-10,,
,2.184998,1.00E-10,,
,2.186998,9.93E-11,,
,2.188998,9.88E-11,,
,2.190998,9.87E-11,,
,2.192998,9.87E-11,,
,2.194998,9.84E-11,,
,2.196998,9.80E-11,,
,2.198998,9.75E-11,,
,2.200998,9.69E-11,,
,2.202998,9.64E-11,,
,2.204998,9.63E-11,,
,2.206998,9.65E-11,,
,2.208998,9.69E-11,,
,2.210998,9.71E-11,,
,2.212998,9.72E-11,,
,2.214998,9.71E-11,,
,2.216998,9.71E-11,,
,2.218998,9.76E-11,,
,2.220998,9.82E-11,,
,2.222998,9.90E-11,,
,2.224998,9.98E-11,,
,2.226998,1.01E-10,,
,2.228998,1.02E-10,,
,2.230998,1.02E-10,,
,2.232998,1.02E-10,,
,2.234998,1.03E-10,,
,2.236998,1.03E-10,,
,2.238998,1.05E-10,,
,2.240998,1.06E-10,,
,2.242998,1.07E-10,,
,2.244998,1.08E-10,,
,2.246998,1.08E-10,,
,2.248998,1.09E-10,,
,2.250998,1.10E-10,,
,2.252998,1.11E-10,,
,2.254998,1.12E-10,,
,2.256998,1.13E-10,,
,2.258998,1.15E-10,,
,2.260998,1.16E-10,,
,2.262998,1.17E-10,,
,2.264998,1.18E-10,,
,2.266998,1.19E-10,,
,2.268998,1.20E-10,,
,2.270998,1.21E-10,,
,2.272998,1.23E-10,,
,2.274998,1.24E-10,,
,2.276998,1.26E-10,,
,2.278998,1.27E-10,,
,2.280998,1.28E-10,,
,2.282998,1.28E-10,,
,2.284998,1.29E-10,,
,2.286998,1.31E-10,,
,2.288998,1.32E-10,,
,2.290998,1.34E-10,,
,2.292998,1.35E-10,,
,2.294998,1.37E-10,,
,2.296998,1.37E-10,,
,2.298998,1.38E-10,,
,2.300998,1.39E-10,,
,2.302998,1.40E-10,,
,2.304998,1.41E-10,,
,2.306998,1.42E-10,,
,2.308998,1.44E-10,,
,2.310998,1.45E-10,,
,2.312998,1.46E-10,,
,2.314998,1.47E-10,,
,2.316998,1.48E-10,,
,2.318998,1.49E-10,,
,2.320998,1.50E-10,,
,2.322998,1.52E-10,,
,2.324998,1.53E-10,,
,2.326998,1.55E-10,,
,2.328998,1.56E-10,,
,2.330998,1.57E-10,,
,2.332998,1.58E-10,,
,2.334998,1.59E-10,,
,2.336998,1.60E-10,,
,2.338998,1.61E-10,,
,2.340998,1.63E-10,,
,2.342998,1.64E-10,,
,2.344998,1.65E-10,,
,2.346998,1.66E-10,,
,2.348998,1.66E-10,,
,2.350998,1.67E-10,,
,2.352998,1.68E-10,,
,2.354998,1.69E-10,,
,2.356998,1.70E-10,,
,2.358998,1.71E-10,,
,2.360998,1.73E-10,,
,2.362998,1.73E-10,,
,2.364998,1.74E-10,,
,2.366998,1.74E-10,,
,2.368998,1.74E-10,,
,2.370998,1.75E-10,,
,2.372998,1.76E-10,,
,2.374998,1.76E-10,,
,2.376998,1.77E-10,,
,2.378998,1.77E-10,,
,2.380998,1.77E-10,,
,2.382998,1.77E-10,,
,2.384998,1.77E-10,,
,2.386998,1.77E-10,,
,2.388998,1.78E-10,,
,2.390998,1.78E-10,,
,2.392998,1.79E-10,,
,2.394998,1.79E-10,,
,2.396998,1.78E-10,,
,2.398998,1.78E-10,,
,2.400998,1.78E-10,,
,2.402998,1.77E-10,,
,2.404998,1.77E-10,,
,2.406998,1.77E-10,,
,2.408998,1.78E-10,,
,2.410998,1.78E-10,,
,2.412998,1.78E-10,,
,2.414998,1.77E-10,,
,2.416998,1.76E-10,,
,2.418998,1.76E-10,,
,2.420998,1.76E-10,,
,2.422998,1.76E-10,,
,2.424998,1.76E-10,,
,2.426998,1.76E-10,,
,2.428998,1.76E-10,,
,2.430998,1.75E-10,,
,2.432998,1.74E-10,,
,2.434998,1.73E-10,,
,2.436998,1.73E-10,,
,2.438998,1.72E-10,,
,2.440998,1.72E-10,,
,2.442998,1.72E-10,,
,2.444998,1.71E-10,,
,2.446998,1.70E-10,,
,2.448998,1.69E-10,,
,2.450998,1.68E-10,,
,2.452998,1.68E-10,,
,2.454998,1.67E-10,,
,2.456998,1.67E-10,,
,2.458998,1.67E-10,,
,2.460998,1.66E-10,,
,2.462998,1.66E-10,,
,2.464998,1.65E-10,,
,2.466998,1.64E-10,,
,2.468998,1.63E-10,,
,2.470998,1.62E-10,,
,2.472998,1.61E-10,,
,2.474998,1.61E-10,,
,2.476998,1.60E-10,,
,2.478998,1.60E-10,,
,2.480998,1.59E-10,,
,2.482998,1.58E-10,,
,2.484998,1.57E-10,,
,2.486998,1.56E-10,,
,2.488998,1.56E-10,,
,2.490998,1.55E-10,,
,2.492998,1.55E-10,,
,2.494998,1.55E-10,,
,2.496998,1.54E-10,,
,2.498998,1.53E-10,,
,2.500998,1.52E-10,,
,2.502998,1.50E-10,,
,2.504998,1.50E-10,,
,2.506998,1.49E-10,,
,2.508998,1.49E-10,,
,2.510998,1.49E-10,,
,2.512998,1.48E-10,,
,2.514998,1.47E-10,,
,2.516998,1.46E-10,,
,2.518998,1.45E-10,,
,2.520998,1.44E-10,,
,2.522998,1.44E-10,,
,2.524998,1.44E-10,,
,2.526998,1.44E-10,,
,2.528998,1.43E-10,,
,2.530998,1.42E-10,,
,2.532998,1.42E-10,,
,2.534998,1.41E-10,,
,2.536998,1.40E-10,,
,2.538998,1.40E-10,,
,2.540998,1.39E-10,,
,2.542998,1.39E-10,,
,2.544998,1.39E-10,,
,2.546998,1.39E-10,,
,2.548998,1.38E-10,,
,2.550998,1.37E-10,,
,2.552998,1.37E-10,,
,2.554998,1.37E-10,,
,2.556998,1.37E-10,,
,2.558998,1.37E-10,,
,2.560998,1.37E-10,,
,2.562998,1.37E-10,,
,2.564998,1.36E-10,,
,2.566998,1.35E-10,,
,2.568998,1.35E-10,,
,2.570998,1.35E-10,,
,2.572998,1.35E-10,,
,2.574998,1.35E-10,,
,2.576998,1.35E-10,,
,2.578998,1.35E-10,,
,2.580998,1.34E-10,,
,2.582998,1.34E-10,,
,2.584998,1.33E-10,,
,2.586998,1.32E-10,,
,2.588998,1.32E-10,,
,2.590998,1.32E-10,,
,2.592998,1.32E-10,,
,2.594998,1.32E-10,,
,2.596998,1.31E-10,,
,2.598998,1.30E-10,,
,2.600998,1.29E-10,,
,2.602998,1.29E-10,,
,2.604998,1.28E-10,,
,2.606998,1.28E-10,,
,2.608998,1.27E-10,,
,2.610998,1.27E-10,,
,2.612998,1.26E-10,,
,2.614998,1.25E-10,,
,2.616998,1.24E-10,,
,2.618998,1.23E-10,,
,2.620998,1.22E-10,,
,2.622998,1.21E-10,,
,2.624998,1.21E-10,,
,2.626998,1.21E-10,,
,2.628998,1.20E-10,,
,2.630998,1.19E-10,,
,2.632998,1.17E-10,,
,2.634998,1.16E-10,,
,2.636998,1.15E-10,,
,2.638998,1.15E-10,,
,2.640998,1.14E-10,,
,2.642998,1.14E-10,,
,2.644998,1.13E-10,,
,2.646998,1.12E-10,,
,2.648998,1.11E-10,,
,2.650998,1.10E-10,,
,2.652998,1.09E-10,,
,2.654998,1.09E-10,,
,2.656998,1.09E-10,,
,2.658998,1.09E-10,,
,2.660998,1.09E-10,,
,2.662998,1.08E-10,,
,2.664998,1.07E-10,,
,2.666998,1.06E-10,,
,2.668998,1.05E-10,,
,2.670998,1.05E-10,,
,2.672998,1.05E-10,,
,2.674998,1.05E-10,,
,2.676998,1.05E-10,,
,2.678998,1.04E-10,,
,2.680998,1.04E-10,,
,2.682998,1.03E-10,,
,2.684998,1.02E-10,,
,2.686998,1.02E-10,,
,2.688998,1.02E-10,,
,2.690998,1.02E-10,,
,2.692998,1.02E-10,,
,2.694998,1.02E-10,,
,2.696998,1.02E-10,,
,2.698998,1.01E-10,,
,2.700998,1.00E-10,,
,2.702998,9.98E-11,,
,2.704998,9.96E-11,,
,2.706998,9.94E-11,,
,2.708998,9.97E-11,,
,2.710998,9.99E-11,,
,2.712998,9.99E-11,,
,2.714998,9.94E-11,,
,2.716998,9.90E-11,,
,2.718998,9.85E-11,,
,2.720998,9.83E-11,,
,2.722998,9.82E-11,,
,2.724998,9.84E-11,,
,2.726998,9.88E-11,,
,2.728998,9.90E-11,,
,2.730998,9.87E-11,,
,2.732998,9.83E-11,,
,2.734998,9.81E-11,,
,2.736998,9.79E-11,,
,2.738998,9.78E-11,,
,2.740998,9.77E-11,,
,2.742998,9.80E-11,,
,2.744998,9.79E-11,,
,2.746998,9.75E-11,,
,2.748998,9.66E-11,,
,2.750998,9.63E-11,,
,2.752998,9.61E-11,,
,2.754998,9.61E-11,,
,2.756998,9.61E-11,,
,2.758998,9.63E-11,,
,2.760998,9.63E-11,,
,2.762998,9.61E-11,,
,2.764998,9.56E-11,,
,2.766998,9.54E-11,,
,2.768998,9.51E-11,,
,2.770998,9.49E-11,,
,2.772998,9.47E-11,,
,2.774998,9.50E-11,,
,2.776998,9.51E-11,,
,2.778998,9.52E-11,,
,2.780998,9.43E-11,,
,2.782998,9.38E-11,,
,2.784998,9.33E-11,,
,2.786998,9.33E-11,,
,2.788998,9.35E-11,,
,2.790998,9.37E-11,,
,2.792998,9.40E-11,,
,2.794998,9.40E-11,,
,2.796998,9.39E-11,,
,2.798998,9.33E-11,,
,2.800998,9.29E-11,,
,2.802998,9.26E-11,,
,2.804998,9.26E-11,,
,2.806998,9.25E-11,,
,2.808998,9.25E-11,,
,2.810998,9.24E-11,,
,2.812998,9.23E-11,,
,2.814998,9.17E-11,,
,2.816998,9.11E-11,,
,2.818998,9.06E-11,,
,2.820998,9.04E-11,,
,2.822998,9.07E-11,,
,2.824998,9.09E-11,,
,2.826998,9.10E-11,,
,2.828998,9.07E-11,,
,2.830998,9.00E-11,,
,2.832998,8.94E-11,,
,2.834998,8.88E-11,,
,2.836998,8.83E-11,,
,2.838998,8.81E-11,,
,2.840998,8.78E-11,,
,2.842998,8.77E-11,,
,2.844998,8.74E-11,,
,2.846998,8.69E-11,,
,2.848998,8.62E-11,,
,2.850998,8.56E-11,,
,2.852998,8.51E-11,,
,2.854998,8.47E-11,,
,2.856998,8.45E-11,,
,2.858998,8.42E-11,,
,2.860998,8.41E-11,,
,2.862998,8.36E-11,,
,2.864998,8.29E-11,,
,2.866998,8.19E-11,,
,2.868998,8.11E-11,,
,2.870998,8.07E-11,,
,2.872998,8.04E-11,,
,2.874998,8.02E-11,,
,2.876998,8.00E-11,,
,2.878998,7.94E-11,,
,2.880998,7.85E-11,,
,2.882998,7.74E-11,,
,2.884998,7.63E-11,,
,2.886998,7.57E-11,,
,2.888998,7.51E-11,,
,2.890998,7.52E-11,,
,2.892998,7.52E-11,,
,2.894998,7.51E-11,,
,2.896998,7.43E-11,,
,2.898998,7.33E-11,,
,2.900998,7.23E-11,,
,2.902998,7.17E-11,,
,2.904998,7.12E-11,,
,2.906998,7.06E-11,,
,2.908998,7.03E-11,,
,2.910998,6.99E-11,,
,2.912998,6.92E-11,,
,2.914998,6.84E-11,,
,2.916998,6.74E-11,,
,2.918998,6.70E-11,,
,2.920998,6.65E-11,,
,2.922998,6.63E-11,,
,2.924998,6.61E-11,,
,2.926998,6.59E-11,,
,2.928998,6.56E-11,,
,2.930998,6.48E-11,,
,2.932998,6.41E-11,,
,2.934998,6.33E-11,,
,2.936998,6.27E-11,,
,2.938998,6.21E-11,,
,2.940998,6.18E-11,,
,2.942998,6.19E-11,,
,2.944998,6.18E-11,,
,2.946998,6.15E-11,,
,2.948998,6.10E-11,,
,2.950998,6.03E-11,,
,2.952998,6.01E-11,,
,2.954998,6.00E-11,,
,2.956998,6.03E-11,,
,2.958998,6.03E-11,,
,2.960998,6.01E-11,,
,2.962998,5.97E-11,,
,2.964998,5.91E-11,,
,2.966998,5.86E-11,,
,2.968998,5.84E-11,,
,2.970998,5.81E-11,,
,2.972998,5.79E-11,,
,2.974998,5.79E-11,,
,2.976998,5.86E-11,,
,2.978998,5.89E-11,,
,2.980998,5.86E-11,,
,2.982998,5.77E-11,,
,2.984998,5.71E-11,,
,2.986998,5.67E-11,,
,2.988998,5.68E-11,,
,2.990998,5.72E-11,,
,2.992998,5.77E-11,,
,2.994998,5.79E-11,,
,2.996998,5.75E-11,,
,2.998998,5.69E-11,,
,3.000998,5.62E-11,,
,3.002998,5.60E-11,,
,3.004998,5.62E-11,,
,3.006998,5.67E-11,,
,3.008998,5.69E-11,,
,3.010998,5.69E-11,,
,3.012998,5.66E-11,,
,3.014998,5.62E-11,,
,3.016998,5.59E-11,,
,3.018998,5.57E-11,,
,3.020998,5.57E-11,,
,3.022998,5.62E-11,,
,3.024998,5.70E-11,,
,3.026998,5.75E-11,,
,3.028998,5.76E-11,,
,3.030998,5.75E-11,,
,3.032998,5.74E-11,,
,3.034998,5.72E-11,,
,3.036998,5.72E-11,,
,3.038998,5.74E-11,,
,3.040998,5.82E-11,,
,3.042998,5.88E-11,,
,3.044998,5.94E-11,,
,3.046998,5.93E-11,,
,3.048998,5.92E-11,,
,3.050998,5.90E-11,,
,3.052998,5.93E-11,,
,3.054998,5.98E-11,,
,3.056998,6.04E-11,,
,3.058998,6.14E-11,,
,3.060998,6.21E-11,,
,3.062998,6.27E-11,,
,3.064998,6.27E-11,,
,3.066998,6.26E-11,,
,3.068998,6.28E-11,,
,3.070998,6.33E-11,,
,3.072998,6.41E-11,,
,3.074998,6.47E-11,,
,3.076998,6.54E-11,,
,3.078998,6.60E-11,,
,3.080998,6.62E-11,,
,3.082998,6.61E-11,,
,3.084998,6.61E-11,,
,3.086998,6.64E-11,,
,3.088998,6.70E-11,,
,3.090998,6.75E-11,,
,3.092998,6.83E-11,,
,3.094998,6.89E-11,,
,3.096998,6.91E-11,,
,3.098998,6.89E-11,,
,3.100998,6.87E-11,,
,3.102998,6.88E-11,,
,3.104998,6.92E-11,,
,3.106998,6.95E-11,,
,3.108998,6.98E-11,,
,3.110998,7.00E-11,,
,3.112998,7.00E-11,,
,3.114998,6.98E-11,,
,3.116998,6.92E-11,,
,3.118998,6.88E-11,,
,3.120998,6.85E-11,,
,3.122998,6.85E-11,,
,3.124998,6.87E-11,,
,3.126998,6.88E-11,,
,3.128998,6.88E-11,,
,3.130998,6.81E-11,,
,3.132998,6.77E-11,,
,3.134998,6.69E-11,,
,3.136998,6.65E-11,,
,3.138998,6.61E-11,,
,3.140998,6.60E-11,,
,3.142998,6.57E-11,,
,3.144998,6.50E-11,,
,3.146998,6.43E-11,,
,3.148998,6.35E-11,,
,3.150998,6.31E-11,,
,3.152998,6.25E-11,,
,3.154998,6.19E-11,,
,3.156998,6.14E-11,,
,3.158998,6.10E-11,,
,3.160998,6.03E-11,,
,3.162998,5.94E-11,,
,3.164998,5.84E-11,,
,3.166998,5.73E-11,,
,3.168998,5.64E-11,,
,3.170998,5.57E-11,,
,3.172998,5.52E-11,,
,3.174998,5.47E-11,,
,3.176998,5.44E-11,,
,3.178998,5.37E-11,,
,3.180998,5.27E-11,,
,3.182998,5.15E-11,,
,3.184998,5.04E-11,,
,3.186998,4.94E-11,,
,3.188998,4.85E-11,,
,3.190998,4.80E-11,,
,3.192998,4.75E-11,,
,3.194998,4.68E-11,,
,3.196998,4.59E-11,,
,3.198998,4.50E-11,,
,3.200998,4.37E-11,,
,3.202998,4.24E-11,,
,3.204998,4.10E-11,,
,3.206998,4.04E-11,,
,3.208998,3.98E-11,,
,3.210998,3.95E-11,,
,3.212998,3.84E-11,,
,3.214998,3.73E-11,,
,3.216998,3.58E-11,,
,3.218998,3.49E-11,,
,3.220998,3.39E-11,,
,3.222998,3.33E-11,,
,3.224998,3.26E-11,,
,3.226998,3.20E-11,,
,3.228998,3.11E-11,,
,3.230998,2.99E-11,,
,3.232998,2.89E-11,,
,3.234998,2.75E-11,,
,3.236998,2.64E-11,,
,3.238998,2.50E-11,,
,3.240998,2.40E-11,,
,3.242998,2.32E-11,,
,3.244998,2.24E-11,,
,3.246998,2.14E-11,,
,3.248998,2.01E-11,,
,3.250998,1.87E-11,,
,3.252998,1.76E-11,,
,3.254998,1.65E-11,,
,3.256998,1.56E-11,,
,3.258998,1.47E-11,,
,3.260998,1.35E-11,,
,3.262998,1.23E-11,,
,3.264998,1.06E-11,,
,3.266998,9.10E-12,,
,3.268998,7.60E-12,,
,3.270998,6.31E-12,,
,3.272998,5.34E-12,,
,3.274998,4.27E-12,,
,3.276998,2.98E-12,,
,3.278998,1.69E-12,,
,3.280998,8.20E-14,,
,3.282998,-1.31E-12,,
,3.284998,-2.82E-12,,
,3.286998,-4.10E-12,,
,3.288998,-5.18E-12,,
,3.290998,-6.14E-12,,
,3.292998,-6.90E-12,,
,3.294998,-7.65E-12,,
,3.296998,-8.94E-12,,
,3.298998,-1.03E-11,,
,3.300998,-1.18E-11,,
,3.302998,-1.28E-11,,
,3.304998,-1.36E-11,,
,3.306998,-1.39E-11,,
,3.308998,-1.42E-11,,
,3.310998,-1.46E-11,,
,3.312998,-1.56E-11,,
,3.314998,-1.65E-11,,
,3.316998,-1.74E-11,,
,3.318998,-1.80E-11,,
,3.320998,-1.85E-11,,
,3.322998,-1.87E-11,,
,3.324998,-1.87E-11,,
,3.326998,-1.89E-11,,
,3.328998,-1.91E-11,,
,3.330998,-2.00E-11,,
,3.332998,-2.04E-11,,
,3.334998,-2.12E-11,,
,3.336998,-2.14E-11,,
,3.338998,-2.15E-11,,
,3.340998,-2.14E-11,,
,3.342998,-2.13E-11,,
,3.344998,-2.16E-11,,
,3.346998,-2.20E-11,,
,3.348998,-2.26E-11,,
,3.350998,-2.30E-11,,
,3.352998,-2.32E-11,,
,3.354998,-2.35E-11,,
,3.356998,-2.38E-11,,
,3.358998,-2.39E-11,,
,3.360998,-2.38E-11,,
,3.362998,-2.43E-11,,
,3.364998,-2.50E-11,,
,3.366998,-2.61E-11,,
,3.368998,-2.68E-11,,
,3.370998,-2.73E-11,,
,3.372998,-2.77E-11,,
,3.374998,-2.78E-11,,
,3.376998,-2.80E-11,,
,3.378998,-2.85E-11,,
,3.380998,-2.93E-11,,
,3.382998,-3.04E-11,,
,3.384998,-3.14E-11,,
,3.386998,-3.21E-11,,
,3.388998,-3.28E-11,,
,3.390998,-3.33E-11,,
,3.392998,-3.42E-11,,
,3.394998,-3.50E-11,,
,3.396998,-3.62E-11,,
,3.398998,-3.75E-11,,
,3.400998,-3.90E-11,,
,3.402998,-4.02E-11,,
,3.404998,-4.14E-11,,
,3.406998,-4.22E-11,,
,3.408998,-4.31E-11,,
,3.410998,-4.38E-11,,
,3.412998,-4.50E-11,,
,3.414998,-4.68E-11,,
,3.416998,-4.87E-11,,
,3.418998,-5.04E-11,,
,3.420998,-5.14E-11,,
,3.422998,-5.25E-11,,
,3.424998,-5.34E-11,,
,3.426998,-5.42E-11,,
,3.428998,-5.53E-11,,
,3.430998,-5.69E-11,,
,3.432998,-5.89E-11,,
,3.434998,-6.05E-11,,
,3.436998,-6.18E-11,,
,3.438998,-6.28E-11,,
,3.440998,-6.38E-11,,
,3.442998,-6.47E-11,,
,3.444998,-6.54E-11,,
,3.446998,-6.65E-11,,
,3.448998,-6.77E-11,,
,3.450998,-6.92E-11,,
,3.452998,-7.03E-11,,
,3.454998,-7.13E-11,,
,3.456998,-7.15E-11,,
,3.458998,-7.20E-11,,
,3.460998,-7.24E-11,,
,3.462998,-7.31E-11,,
,3.464998,-7.40E-11,,
,3.466998,-7.45E-11,,
,3.468998,-7.52E-11,,
,3.470998,-7.51E-11,,
,3.472998,-7.52E-11,,
,3.474998,-7.47E-11,,
,3.476998,-7.46E-11,,
,3.478998,-7.40E-11,,
,3.480998,-7.41E-11,,
,3.482998,-7.41E-11,,
,3.484998,-7.44E-11,,
,3.486998,-7.40E-11,,
,3.488998,-7.29E-11,,
,3.490998,-7.17E-11,,
,3.492998,-7.05E-11,,
,3.494998,-6.93E-11,,
,3.496998,-6.80E-11,,
,3.498998,-6.70E-11,,
,3.500998,-6.60E-11,,
,3.502998,-6.48E-11,,
,3.504998,-6.29E-11,,
,3.506998,-6.09E-11,,
,3.508998,-5.85E-11,,
,3.510998,-5.61E-11,,
,3.512998,-5.35E-11,,
,3.514998,-5.13E-11,,
,3.516998,-4.90E-11,,
,3.518998,-4.66E-11,,
,3.520998,-4.39E-11,,
,3.522998,-4.09E-11,,
,3.524998,-3.76E-11,,
,3.526998,-3.39E-11,,
,3.528998,-3.05E-11,,
,3.530998,-2.74E-11,,
,3.532998,-2.45E-11,,
,3.534998,-2.13E-11,,
,3.536998,-1.76E-11,,
,3.538998,-1.36E-11,,
,3.540998,-9.26E-12,,
,3.542998,-4.86E-12,,
,3.544998,-4.55E-13,,
,3.546998,3.41E-12,,
,3.548998,7.27E-12,,
,3.550998,1.08E-11,,
,3.552998,1.48E-11,,
,3.554998,1.85E-11,,
,3.556998,2.29E-11,,
,3.558998,2.77E-11,,
,3.560998,3.24E-11,,
,3.562998,3.65E-11,,
,3.564998,4.00E-11,,
,3.566998,4.38E-11,,
,3.568998,4.77E-11,,
,3.570998,5.17E-11,,
,3.572998,5.59E-11,,
,3.574998,6.03E-11,,
,3.576998,6.48E-11,,
,3.578998,6.90E-11,,
,3.580998,7.28E-11,,
,3.582998,7.62E-11,,
,3.584998,7.96E-11,,
,3.586998,8.33E-11,,
,3.588998,8.71E-11,,
,3.590998,9.12E-11,,
,3.592998,9.53E-11,,
,3.594998,9.93E-11,,
,3.596998,1.03E-10,,
,3.598998,1.06E-10,,
,3.600998,1.09E-10,,
,3.602998,1.13E-10,,
,3.604998,1.17E-10,,
,3.606998,1.20E-10,,
,3.608998,1.24E-10,,
,3.610998,1.28E-10,,
,3.612998,1.31E-10,,
,3.614998,1.34E-10,,
,3.616998,1.37E-10,,
,3.618998,1.40E-10,,
,3.620998,1.43E-10,,
,3.622998,1.47E-10,,
,3.624998,1.50E-10,,
,3.626998,1.53E-10,,
,3.628998,1.56E-10,,
,3.630998,1.59E-10,,
,3.632998,1.61E-10,,
,3.634998,1.63E-10,,
,3.636998,1.66E-10,,
,3.638998,1.69E-10,,
,3.640998,1.71E-10,,
,3.642998,1.74E-10,,
,3.644998,1.76E-10,,
,3.646998,1.78E-10,,
,3.648998,1.79E-10,,
,3.650998,1.81E-10,,
,3.652998,1.82E-10,,
,3.654998,1.83E-10,,
,3.656998,1.84E-10,,
,3.658998,1.86E-10,,
,3.660998,1.87E-10,,
,3.662998,1.88E-10,,
,3.664998,1.88E-10,,
,3.666998,1.89E-10,,
,3.668998,1.89E-10,,
,3.670998,1.89E-10,,
,3.672998,1.90E-10,,
,3.674998,1.90E-10,,
,3.676998,1.91E-10,,
,3.678998,1.91E-10,,
,3.680998,1.91E-10,,
,3.682998,1.90E-10,,
,3.684998,1.89E-10,,
,3.686998,1.89E-10,,
,3.688998,1.89E-10,,
,3.690998,1.89E-10,,
,3.692998,1.89E-10,,
,3.694998,1.89E-10,,
,3.696998,1.88E-10,,
,3.698998,1.88E-10,,
,3.700998,1.87E-10,,
,3.702998,1.86E-10,,
,3.704998,1.85E-10,,
,3.706998,1.85E-10,,
,3.708998,1.84E-10,,
,3.710998,1.84E-10,,
,3.712998,1.83E-10,,
,3.714998,1.82E-10,,
,3.716998,1.81E-10,,
,3.718998,1.79E-10,,
,3.720998,1.78E-10,,
,3.722998,1.78E-10,,
,3.724998,1.78E-10,,
,3.726998,1.77E-10,,
,3.728998,1.77E-10,,
,3.730998,1.76E-10,,
,3.732998,1.74E-10,,
,3.734998,1.73E-10,,
,3.736998,1.72E-10,,
,3.738998,1.72E-10,,
,3.740998,1.71E-10,,
,3.742998,1.71E-10,,
,3.744998,1.70E-10,,
,3.746998,1.70E-10,,
,3.748998,1.68E-10,,
,3.750998,1.67E-10,,
,3.752998,1.66E-10,,
,3.754998,1.66E-10,,
,3.756998,1.66E-10,,
,3.758998,1.65E-10,,
,3.760998,1.65E-10,,
,3.762998,1.64E-10,,
,3.764998,1.63E-10,,
,3.766998,1.62E-10,,
,3.768998,1.61E-10,,
,3.770998,1.60E-10,,
,3.772998,1.60E-10,,
,3.774998,1.60E-10,,
,3.776998,1.60E-10,,
,3.778998,1.59E-10,,
,3.780998,1.58E-10,,
,3.782998,1.57E-10,,
,3.784998,1.56E-10,,
,3.786998,1.56E-10,,
,3.788998,1.55E-10,,
,3.790998,1.55E-10,,
,3.792998,1.55E-10,,
,3.794998,1.54E-10,,
,3.796998,1.54E-10,,
,3.798998,1.53E-10,,
,3.800998,1.52E-10,,
,3.802998,1.52E-10,,
,3.804998,1.52E-10,,
,3.806998,1.52E-10,,
,3.808998,1.51E-10,,
,3.810998,1.51E-10,,
,3.812998,1.51E-10,,
,3.814998,1.50E-10,,
,3.816998,1.49E-10,,
,3.818998,1.48E-10,,
,3.820998,1.48E-10,,
,3.822998,1.48E-10,,
,3.824998,1.48E-10,,
,3.826998,1.48E-10,,
,3.828998,1.48E-10,,
,3.830998,1.47E-10,,
,3.832998,1.47E-10,,
,3.834998,1.46E-10,,
,3.836998,1.45E-10,,
,3.838998,1.45E-10,,
,3.840998,1.45E-10,,
,3.842998,1.45E-10,,
,3.844998,1.45E-10,,
,3.846998,1.44E-10,,
,3.848998,1.43E-10,,
,3.850998,1.43E-10,,
,3.852998,1.43E-10,,
,3.854998,1.42E-10,,
,3.856998,1.42E-10,,
,3.858998,1.42E-10,,
,3.860998,1.42E-10,,
,3.862998,1.42E-10,,
,3.864998,1.42E-10,,
,3.866998,1.41E-10,,
,3.868998,1.41E-10,,
,3.870998,1.41E-10,,
,3.872998,1.41E-10,,
,3.874998,1.41E-10,,
,3.876998,1.40E-10,,
,3.878998,1.40E-10,,
,3.880998,1.39E-10,,
,3.882998,1.39E-10,,
,3.884998,1.38E-10,,
,3.886998,1.38E-10,,
,3.888998,1.37E-10,,
,3.890998,1.38E-10,,
,3.892998,1.38E-10,,
,3.894998,1.37E-10,,
,3.896998,1.37E-10,,
,3.898998,1.36E-10,,
,3.900998,1.35E-10,,
,3.902998,1.34E-10,,
,3.904998,1.34E-10,,
,3.906998,1.34E-10,,
,3.908998,1.33E-10,,
,3.910998,1.32E-10,,
,3.912998,1.32E-10,,
,3.914998,1.31E-10,,
,3.916998,1.30E-10,,
,3.918998,1.29E-10,,
,3.920998,1.28E-10,,
,3.922998,1.27E-10,,
,3.924998,1.27E-10,,
,3.926998,1.27E-10,,
,3.928998,1.26E-10,,
,3.930998,1.26E-10,,
,3.932998,1.25E-10,,
,3.934998,1.24E-10,,
,3.936998,1.23E-10,,
,3.938998,1.23E-10,,
,3.940998,1.22E-10,,
,3.942998,1.22E-10,,
,3.944998,1.22E-10,,
,3.946998,1.22E-10,,
,3.948998,1.21E-10,,
,3.950998,1.20E-10,,
,3.952998,1.20E-10,,
,3.954998,1.20E-10,,
,3.956998,1.19E-10,,
,3.958998,1.19E-10,,
,3.960998,1.19E-10,,
,3.962998,1.19E-10,,
,3.964998,1.19E-10,,
,3.966998,1.19E-10,,
,3.968998,1.18E-10,,
,3.970998,1.18E-10,,
,3.972998,1.18E-10,,
,3.974998,1.18E-10,,
,3.976998,1.18E-10,,
,3.978998,1.18E-10,,
,3.980998,1.18E-10,,
,3.982998,1.17E-10,,
,3.984998,1.17E-10,,
,3.986998,1.17E-10,,
,3.988998,1.17E-10,,
,3.990998,1.17E-10,,
,3.992998,1.17E-10,,
,3.994998,1.18E-10,,
,3.996998,1.17E-10,,
,3.998998,1.17E-10,,
,4.000998,1.17E-10,,
,4.002998,1.17E-10,,
,4.004998,1.16E-10,,
,4.006998,1.16E-10,,
,4.008998,1.16E-10,,
,4.010998,1.16E-10,,
,4.012998,1.16E-10,,
,4.014998,1.15E-10,,
,4.016998,1.15E-10,,
,4.018998,1.15E-10,,
,4.020998,1.14E-10,,
,4.022998,1.14E-10,,
,4.024998,1.14E-10,,
,4.026998,1.14E-10,,
,4.028998,1.13E-10,,
,4.030998,1.12E-10,,
,4.032998,1.12E-10,,
,4.034998,1.11E-10,,
,4.036998,1.10E-10,,
,4.038998,1.09E-10,,
,4.040998,1.09E-10,,
,4.042998,1.08E-10,,
,4.044998,1.07E-10,,
,4.046998,1.07E-10,,
,4.048998,1.06E-10,,
,4.050998,1.05E-10,,
,4.052998,1.03E-10,,
,4.054998,1.02E-10,,
,4.056998,1.02E-10,,
,4.058998,1.01E-10,,
,4.060998,9.97E-11,,
,4.062998,9.87E-11,,
,4.064998,9.77E-11,,
,4.066998,9.64E-11,,
,4.068998,9.51E-11,,
,4.070998,9.40E-11,,
,4.072998,9.28E-11,,
,4.074998,9.20E-11,,
,4.076998,9.09E-11,,
,4.078998,9.02E-11,,
,4.080998,8.88E-11,,
,4.082998,8.74E-11,,
,4.084998,8.60E-11,,
,4.086998,8.49E-11,,
,4.088998,8.42E-11,,
,4.090998,8.34E-11,,
,4.092998,8.27E-11,,
,4.094998,8.20E-11,,
,4.096998,8.10E-11,,
,4.098998,8.01E-11,,
,4.100998,7.89E-11,,
,4.102998,7.81E-11,,
,4.104998,7.75E-11,,
,4.106998,7.68E-11,,
,4.108998,7.60E-11,,
,4.110998,7.50E-11,,
,4.112998,7.43E-11,,
,4.114998,7.34E-11,,
,4.116998,7.25E-11,,
,4.118998,7.16E-11,,
,4.120998,7.08E-11,,
,4.122998,7.01E-11,,
,4.124998,6.96E-11,,
,4.126998,6.92E-11,,
,4.128998,6.87E-11,,
,4.130998,6.79E-11,,
,4.132998,6.70E-11,,
,4.134998,6.63E-11,,
,4.136998,6.55E-11,,
,4.138998,6.48E-11,,
,4.140998,6.42E-11,,
,4.142998,6.39E-11,,
,4.144998,6.33E-11,,
,4.146998,6.22E-11,,
,4.148998,6.11E-11,,
,4.150998,6.02E-11,,
,4.152998,5.97E-11,,
,4.154998,5.89E-11,,
,4.156998,5.83E-11,,
,4.158998,5.76E-11,,
,4.160998,5.73E-11,,
,4.162998,5.69E-11,,
,4.164998,5.60E-11,,
,4.166998,5.52E-11,,
,4.168998,5.41E-11,,
,4.170998,5.33E-11,,
,4.172998,5.25E-11,,
,4.174998,5.19E-11,,
,4.176998,5.13E-11,,
,4.178998,5.06E-11,,
,4.180998,4.97E-11,,
,4.182998,4.88E-11,,
,4.184998,4.77E-11,,
,4.186998,4.69E-11,,
,4.188998,4.64E-11,,
,4.190998,4.61E-11,,
,4.192998,4.58E-11,,
,4.194998,4.55E-11,,
,4.196998,4.46E-11,,
,4.198998,4.40E-11,,
,4.200998,4.33E-11,,
,4.202998,4.29E-11,,
,4.204998,4.25E-11,,
,4.206998,4.18E-11,,
,4.208998,4.18E-11,,
,4.210998,4.17E-11,,
,4.212998,4.16E-11,,
,4.214998,4.11E-11,,
,4.216998,4.07E-11,,
,4.218998,4.06E-11,,
,4.220998,4.03E-11,,
,4.222998,4.07E-11,,
,4.224998,4.08E-11,,
,4.226998,4.12E-11,,
,4.228998,4.12E-11,,
,4.230998,4.14E-11,,
,4.232998,4.17E-11,,
,4.234998,4.22E-11,,
,4.236998,4.25E-11,,
,4.238998,4.29E-11,,
,4.240998,4.35E-11,,
,4.242998,4.43E-11,,
,4.244998,4.53E-11,,
,4.246998,4.59E-11,,
,4.248998,4.62E-11,,
,4.250998,4.66E-11,,
,4.252998,4.72E-11,,
,4.254998,4.81E-11,,
,4.256998,4.90E-11,,
,4.258998,5.01E-11,,
,4.260998,5.12E-11,,
,4.262998,5.20E-11,,
,4.264998,5.29E-11,,
,4.266998,5.38E-11,,
,4.268998,5.47E-11,,
,4.270998,5.58E-11,,
,4.272998,5.69E-11,,
,4.274998,5.81E-11,,
,4.276998,5.93E-11,,
,4.278998,6.06E-11,,
,4.280998,6.17E-11,,
,4.282998,6.23E-11,,
,4.284998,6.31E-11,,
,4.286998,6.43E-11,,
,4.288998,6.57E-11,,
,4.290998,6.76E-11,,
,4.292998,6.93E-11,,
,4.294998,7.10E-11,,
,4.296998,7.21E-11,,
,4.298998,7.28E-11,,
,4.300998,7.32E-11,,
,4.302998,7.39E-11,,
,4.304998,7.50E-11,,
,4.306998,7.64E-11,,
,4.308998,7.78E-11,,
,4.310998,7.91E-11,,
,4.312998,8.01E-11,,
,4.314998,8.07E-11,,
,4.316998,8.11E-11,,
,4.318998,8.17E-11,,
,4.320998,8.22E-11,,
,4.322998,8.35E-11,,
,4.324998,8.49E-11,,
,4.326998,8.67E-11,,
,4.328998,8.79E-11,,
,4.330998,8.85E-11,,
,4.332998,8.87E-11,,
,4.334998,8.88E-11,,
,4.336998,8.92E-11,,
,4.338998,8.95E-11,,
,4.340998,9.02E-11,,
,4.342998,9.10E-11,,
,4.344998,9.19E-11,,
,4.346998,9.19E-11,,
,4.348998,9.13E-11,,
,4.350998,9.08E-11,,
,4.352998,9.05E-11,,
,4.354998,9.05E-11,,
,4.356998,9.04E-11,,
,4.358998,9.07E-11,,
,4.360998,9.06E-11,,
,4.362998,9.04E-11,,
,4.364998,8.96E-11,,
,4.366998,8.84E-11,,
,4.368998,8.74E-11,,
,4.370998,8.63E-11,,
,4.372998,8.61E-11,,
,4.374998,8.58E-11,,
,4.376998,8.55E-11,,
,4.378998,8.48E-11,,
,4.380998,8.34E-11,,
,4.382998,8.17E-11,,
,4.384998,7.98E-11,,
,4.386998,7.86E-11,,
,4.388998,7.75E-11,,
,4.390998,7.66E-11,,
,4.392998,7.59E-11,,
,4.394998,7.50E-11,,
,4.396998,7.38E-11,,
,4.398998,7.21E-11,,
,4.400998,7.05E-11,,
,4.402998,6.88E-11,,
,4.404998,6.75E-11,,
,4.406998,6.62E-11,,
,4.408998,6.51E-11,,
,4.410998,6.39E-11,,
,4.412998,6.25E-11,,
,4.414998,6.05E-11,,
,4.416998,5.87E-11,,
,4.418998,5.67E-11,,
,4.420998,5.54E-11,,
,4.422998,5.42E-11,,
,4.424998,5.33E-11,,
,4.426998,5.25E-11,,
,4.428998,5.13E-11,,
,4.430998,4.98E-11,,
,4.432998,4.82E-11,,
,4.434998,4.66E-11,,
,4.436998,4.54E-11,,
,4.438998,4.43E-11,,
,4.440998,4.35E-11,,
,4.442998,4.28E-11,,
,4.444998,4.23E-11,,
,4.446998,4.16E-11,,
,4.448998,4.06E-11,,
,4.450998,3.95E-11,,
,4.452998,3.86E-11,,
,4.454998,3.81E-11,,
,4.456998,3.78E-11,,
,4.458998,3.78E-11,,
,4.460998,3.81E-11,,
,4.462998,3.83E-11,,
,4.464998,3.81E-11,,
,4.466998,3.73E-11,,
,4.468998,3.67E-11,,
,4.470998,3.66E-11,,
,4.472998,3.72E-11,,
,4.474998,3.79E-11,,
,4.476998,3.85E-11,,
,4.478998,3.86E-11,,
,4.480998,3.83E-11,,
,4.482998,3.78E-11,,
,4.484998,3.73E-11,,
,4.486998,3.72E-11,,
,4.488998,3.75E-11,,
,4.490998,3.79E-11,,
,4.492998,3.86E-11,,
,4.494998,3.89E-11,,
,4.496998,3.92E-11,,
,4.498998,3.88E-11,,
,4.500998,3.88E-11,,
,4.502998,3.85E-11,,
,4.504998,3.82E-11,,
,4.506998,3.79E-11,,
,4.508998,3.79E-11,,
,4.510998,3.78E-11,,
,4.512998,3.72E-11,,
,4.514998,3.65E-11,,
,4.516998,3.56E-11,,
,4.518998,3.50E-11,,
,4.520998,3.42E-11,,
,4.522998,3.39E-11,,
,4.524998,3.34E-11,,
,4.526998,3.30E-11,,
,4.528998,3.24E-11,,
,4.530998,3.19E-11,,
,4.532998,3.10E-11,,
,4.534998,3.00E-11,,
,4.536998,2.93E-11,,
,4.538998,2.87E-11,,
,4.540998,2.84E-11,,
,4.542998,2.80E-11,,
,4.544998,2.78E-11,,
,4.546998,2.74E-11,,
,4.548998,2.67E-11,,
,4.550998,2.61E-11,,
,4.552998,2.57E-11,,
,4.554998,2.55E-11,,
,4.556998,2.54E-11,,
,4.558998,2.53E-11,,
,4.560998,2.55E-11,,
,4.562998,2.55E-11,,
,4.564998,2.53E-11,,
,4.566998,2.51E-11,,
,4.568998,2.48E-11,,
,4.570998,2.49E-11,,
,4.572998,2.47E-11,,
,4.574998,2.51E-11,,
,4.576998,2.52E-11,,
,4.578998,2.55E-11,,
,4.580998,2.52E-11,,
,4.582998,2.49E-11,,
,4.584998,2.42E-11,,
,4.586998,2.40E-11,,
,4.588998,2.40E-11,,
,4.590998,2.42E-11,,
,4.592998,2.45E-11,,
,4.594998,2.45E-11,,
,4.596998,2.43E-11,,
,4.598998,2.39E-11,,
,4.600998,2.34E-11,,
,4.602998,2.31E-11,,
,4.604998,2.27E-11,,
,4.606998,2.27E-11,,
,4.608998,2.26E-11,,
,4.610998,2.25E-11,,
,4.612998,2.22E-11,,
,4.614998,2.16E-11,,
,4.616998,2.07E-11,,
,4.618998,2.01E-11,,
,4.620998,1.96E-11,,
,4.622998,1.95E-11,,
,4.624998,1.93E-11,,
,4.626998,1.91E-11,,
,4.628998,1.87E-11,,
,4.630998,1.80E-11,,
,4.632998,1.74E-11,,
,4.634998,1.69E-11,,
,4.636998,1.67E-11,,
,4.638998,1.62E-11,,
,4.640998,1.58E-11,,
,4.642998,1.53E-11,,
,4.644998,1.48E-11,,
,4.646998,1.41E-11,,
,4.648998,1.31E-11,,
,4.650998,1.23E-11,,
,4.652998,1.14E-11,,
,4.654998,1.08E-11,,
,4.656998,1.05E-11,,
,4.658998,1.01E-11,,
,4.660998,9.42E-12,,
,4.662998,8.56E-12,,
,4.664998,7.60E-12,,
,4.666998,6.52E-12,,
,4.668998,5.45E-12,,
,4.670998,4.59E-12,,
,4.672998,4.05E-12,,
,4.674998,3.62E-12,,
,4.676998,3.62E-12,,
,4.678998,2.87E-12,,
,4.680998,1.80E-12,,
,4.682998,1.89E-13,,
,4.684998,-1.10E-12,,
,4.686998,-2.07E-12,,
,4.688998,-2.82E-12,,
,4.690998,-2.92E-12,,
,4.692998,-2.92E-12,,
,4.694998,-3.03E-12,,
,4.696998,-3.35E-12,,
,4.698998,-4.21E-12,,
,4.700998,-4.75E-12,,
,4.702998,-5.61E-12,,
,4.704998,-5.82E-12,,
,4.706998,-5.72E-12,,
,4.708998,-5.07E-12,,
,4.710998,-4.53E-12,,
,4.712998,-4.43E-12,,
,4.714998,-4.75E-12,,
,4.716998,-5.07E-12,,
,4.718998,-5.50E-12,,
,4.720998,-5.61E-12,,
,4.722998,-5.39E-12,,
,4.724998,-4.64E-12,,
,4.726998,-4.00E-12,,
,4.728998,-3.25E-12,,
,4.730998,-2.82E-12,,
,4.732998,-2.28E-12,,
,4.734998,-2.28E-12,,
,4.736998,-1.96E-12,,
,4.738998,-1.53E-12,,
,4.740998,-6.69E-13,,
,4.742998,8.20E-14,,
,4.744998,8.34E-13,,
,4.746998,1.37E-12,,
,4.748998,1.37E-12,,
,4.750998,1.26E-12,,
,4.752998,1.37E-12,,
,4.754998,2.01E-12,,
,4.756998,2.87E-12,,
,4.758998,3.95E-12,,
,4.760998,4.91E-12,,
,4.762998,5.77E-12,,
,4.764998,6.09E-12,,
,4.766998,6.31E-12,,
,4.768998,6.52E-12,,
,4.770998,7.06E-12,,
,4.772998,7.92E-12,,
,4.774998,8.99E-12,,
,4.776998,9.74E-12,,
,4.778998,1.04E-11,,
,4.780998,1.07E-11,,
,4.782998,1.09E-11,,
,4.784998,1.11E-11,,
,4.786998,1.17E-11,,
,4.788998,1.26E-11,,
,4.790998,1.39E-11,,
,4.792998,1.49E-11,,
,4.794998,1.63E-11,,
,4.796998,1.70E-11,,
,4.798998,1.77E-11,,
,4.800998,1.77E-11,,
,4.802998,1.80E-11,,
,4.804998,1.87E-11,,
,4.806998,1.97E-11,,
,4.808998,2.11E-11,,
,4.810998,2.22E-11,,
,4.812998,2.27E-11,,
,4.814998,2.27E-11,,
,4.816998,2.27E-11,,
,4.818998,2.31E-11,,
,4.820998,2.37E-11,,
,4.822998,2.42E-11,,
,4.824998,2.50E-11,,
,4.826998,2.56E-11,,
,4.828998,2.65E-11,,
,4.830998,2.69E-11,,
,4.832998,2.68E-11,,
,4.834998,2.66E-11,,
,4.836998,2.65E-11,,
,4.838998,2.68E-11,,
,4.840998,2.77E-11,,
,4.842998,2.84E-11,,
,4.844998,2.90E-11,,
,4.846998,2.89E-11,,
,4.848998,2.84E-11,,
,4.850998,2.78E-11,,
,4.852998,2.75E-11,,
,4.854998,2.76E-11,,
,4.856998,2.81E-11,,
,4.858998,2.87E-11,,
,4.860998,2.91E-11,,
,4.862998,2.96E-11,,
,4.864998,2.94E-11,,
,4.866998,2.92E-11,,
,4.868998,2.87E-11,,
,4.870998,2.90E-11,,
,4.872998,2.94E-11,,
,4.874998,2.98E-11,,
,4.876998,3.05E-11,,
,4.878998,3.10E-11,,
,4.880998,3.13E-11,,
,4.882998,3.10E-11,,
,4.884998,3.07E-11,,
,4.886998,3.06E-11,,
,4.888998,3.10E-11,,
,4.890998,3.19E-11,,
,4.892998,3.28E-11,,
,4.894998,3.38E-11,,
,4.896998,3.43E-11,,
,4.898998,3.47E-11,,
,4.900998,3.48E-11,,
,4.902998,3.52E-11,,
,4.904998,3.58E-11,,
,4.906998,3.66E-11,,
,4.908998,3.75E-11,,
,4.910998,3.86E-11,,
,4.912998,3.95E-11,,
,4.914998,3.98E-11,,
,4.916998,3.99E-11,,
,4.918998,4.00E-11,,
,4.920998,4.06E-11,,
,4.922998,4.12E-11,,
,4.924998,4.24E-11,,
,4.926998,4.33E-11,,
,4.928998,4.43E-11,,
,4.930998,4.47E-11,,
,4.932998,4.48E-11,,
,4.934998,4.47E-11,,
,4.936998,4.51E-11,,
,4.938998,4.57E-11,,
,4.940998,4.66E-11,,
,4.942998,4.73E-11,,
,4.944998,4.82E-11,,
,4.946998,4.85E-11,,
,4.948998,4.85E-11,,
,4.950998,4.81E-11,,
,4.952998,4.81E-11,,
,4.954998,4.85E-11,,
,4.956998,4.93E-11,,
,4.958998,5.00E-11,,
,4.960998,5.05E-11,,
,4.962998,5.09E-11,,
,4.964998,5.09E-11,,
,4.966998,5.06E-11,,
,4.968998,5.05E-11,,
,4.970998,5.06E-11,,
,4.972998,5.11E-11,,
,4.974998,5.17E-11,,
,4.976998,5.24E-11,,
,4.978998,5.27E-11,,
,4.980998,5.25E-11,,
,4.982998,5.24E-11,,
,4.984998,5.19E-11,,
,4.986998,5.18E-11,,
,4.988998,5.18E-11,,
,4.990998,5.23E-11,,
,4.992998,5.28E-11,,
,4.994998,5.30E-11,,
,4.996998,5.30E-11,,
,4.998998,5.26E-11,,
,5.000998,5.21E-11,,
,5.002998,5.15E-11,,
,5.004998,5.14E-11,,
,5.006998,5.14E-11,,
,5.008998,5.17E-11,,
,5.010998,5.16E-11,,
,5.012998,5.15E-11,,
,5.014998,5.10E-11,,
,5.016998,5.02E-11,,
,5.018998,4.93E-11,,
,5.020998,4.88E-11,,
,5.022998,4.86E-11,,
,5.024998,4.87E-11,,
,5.026998,4.87E-11,,
,5.028998,4.85E-11,,
,5.030998,4.77E-11,,
,5.032998,4.68E-11,,
,5.034998,4.58E-11,,
,5.036998,4.51E-11,,
,5.038998,4.43E-11,,
,5.040998,4.33E-11,,
,5.042998,4.21E-11,,
,5.044998,3.97E-11,,
,5.046998,3.59E-11,,
,5.048998,3.02E-11,,
,5.050998,2.25E-11,,
,5.052998,1.33E-11,,
,5.054998,2.77E-12,,
,5.056998,-8.61E-12,,
,5.058998,-2.12E-11,,
,5.060998,-3.49E-11,,
,5.062998,-5.03E-11,,
,5.064998,-6.69E-11,,
,5.066998,-8.51E-11,,
,5.068998,-1.04E-10,,
,5.070998,-1.23E-10,,
,5.072998,-1.42E-10,,
,5.074998,-1.61E-10,,
,5.076998,-1.81E-10,,
,5.078998,-2.01E-10,,
,5.080998,-2.21E-10,,
,5.082998,-2.42E-10,,
,5.084998,-2.62E-10,,
,5.086998,-2.82E-10,,
,5.088998,-3.01E-10,,
,5.090998,-3.20E-10,,
,5.092998,-3.38E-10,,
,5.094998,-3.55E-10,,
,5.096998,-3.72E-10,,
,5.098998,-3.90E-10,,
,5.100998,-4.06E-10,,
,5.102998,-4.22E-10,,
,5.104998,-4.37E-10,,
,5.106998,-4.50E-10,,
,5.108998,-4.63E-10,,
,5.110998,-4.76E-10,,
,5.112998,-4.87E-10,,
,5.114998,-4.99E-10,,
,5.116998,-5.10E-10,,
,5.118998,-5.20E-10,,
,5.120998,-5.30E-10,,
,5.122998,-5.38E-10,,
,5.124998,-5.46E-10,,
,5.126998,-5.52E-10,,
,5.128998,-5.59E-10,,
,5.130998,-5.65E-10,,
,5.132998,-5.70E-10,,
,5.134998,-5.75E-10,,
,5.136998,-5.80E-10,,
,5.138998,-5.83E-10,,
,5.140998,-5.86E-10,,
,5.142998,-5.88E-10,,
,5.144998,-5.90E-10,,
,5.146998,-5.91E-10,,
,5.148998,-5.93E-10,,
,5.150998,-5.94E-10,,
,5.152998,-5.95E-10,,
,5.154998,-5.95E-10,,
,5.156998,-5.95E-10,,
,5.158998,-5.93E-10,,
,5.160998,-5.92E-10,,
,5.162998,-5.90E-10,,
,5.164998,-5.89E-10,,
,5.166998,-5.87E-10,,
,5.168998,-5.85E-10,,
,5.170998,-5.83E-10,,
,5.172998,-5.80E-10,,
,5.174998,-5.77E-10,,
,5.176998,-5.74E-10,,
,5.178998,-5.70E-10,,
,5.180998,-5.67E-10,,
,5.182998,-5.64E-10,,
,5.184998,-5.62E-10,,
,5.186998,-5.59E-10,,
,5.188998,-5.55E-10,,
,5.190998,-5.51E-10,,
,5.192998,-5.46E-10,,
,5.194998,-5.41E-10,,
,5.196998,-5.37E-10,,
,5.198998,-5.33E-10,,
,5.200998,-5.29E-10,,
,5.202998,-5.25E-10,,
,5.204998,-5.21E-10,,
,5.206998,-5.16E-10,,
,5.208998,-5.11E-10,,
,5.210998,-5.06E-10,,
,5.212998,-5.01E-10,,
,5.214998,-4.97E-10,,
,5.216998,-4.92E-10,,
,5.218998,-4.88E-10,,
,5.220998,-4.83E-10,,
,5.222998,-4.78E-10,,
,5.224998,-4.73E-10,,
,5.226998,-4.67E-10,,
,5.228998,-4.62E-10,,
,5.230998,-4.57E-10,,
,5.232998,-4.52E-10,,
,5.234998,-4.48E-10,,
,5.236998,-4.43E-10,,
,5.238998,-4.38E-10,,
,5.240998,-4.33E-10,,
,5.242998,-4.28E-10,,
,5.244998,-4.22E-10,,
,5.246998,-4.17E-10,,
,5.248998,-4.13E-10,,
,5.250998,-4.08E-10,,
,5.252998,-4.04E-10,,
,5.254998,-3.99E-10,,
,5.256998,-3.94E-10,,
,5.258998,-3.89E-10,,
,5.260998,-3.84E-10,,
,5.262998,-3.79E-10,,
,5.264998,-3.74E-10,,
,5.266998,-3.70E-10,,
,5.268998,-3.67E-10,,
,5.270998,-3.62E-10,,
,5.272998,-3.57E-10,,
,5.274998,-3.52E-10,,
,5.276998,-3.48E-10,,
,5.278998,-3.43E-10,,
,5.280998,-3.39E-10,,
,5.282998,-3.36E-10,,
,5.284998,-3.33E-10,,
,5.286998,-3.30E-10,,
,5.288998,-3.26E-10,,
,5.290998,-3.22E-10,,
,5.292998,-3.18E-10,,
,5.294998,-3.14E-10,,
,5.296998,-3.11E-10,,
,5.298998,-3.08E-10,,
,5.300998,-3.06E-10,,
,5.302998,-3.03E-10,,
,5.304998,-3.00E-10,,
,5.306998,-2.97E-10,,
,5.308998,-2.94E-10,,
,5.310998,-2.91E-10,,
,5.312998,-2.88E-10,,
,5.314998,-2.86E-10,,
,5.316998,-2.84E-10,,
,5.318998,-2.83E-10,,
,5.320998,-2.81E-10,,
,5.322998,-2.79E-10,,
,5.324998,-2.76E-10,,
,5.326998,-2.73E-10,,
,5.328998,-2.70E-10,,
,5.330998,-2.68E-10,,
,5.332998,-2.66E-10,,
,5.334998,-2.65E-10,,
,5.336998,-2.63E-10,,
,5.338998,-2.62E-10,,
,5.340998,-2.60E-10,,
,5.342998,-2.57E-10,,
,5.344998,-2.55E-10,,
,5.346998,-2.53E-10,,
,5.348998,-2.52E-10,,
,5.350998,-2.50E-10,,
,5.352998,-2.49E-10,,
,5.354998,-2.47E-10,,
,5.356998,-2.45E-10,,
,5.358998,-2.42E-10,,
,5.360998,-2.40E-10,,
,5.362998,-2.38E-10,,
,5.364998,-2.36E-10,,
,5.366998,-2.35E-10,,
,5.368998,-2.33E-10,,
,5.370998,-2.31E-10,,
,5.372998,-2.29E-10,,
,5.374998,-2.26E-10,,
,5.376998,-2.24E-10,,
,5.378998,-2.21E-10,,
,5.380998,-2.19E-10,,
,5.382998,-2.18E-10,,
,5.384998,-2.16E-10,,
,5.386998,-2.15E-10,,
,5.388998,-2.13E-10,,
,5.390998,-2.11E-10,,
,5.392998,-2.08E-10,,
,5.394998,-2.05E-10,,
,5.396998,-2.03E-10,,
,5.398998,-2.00E-10,,
,5.400998,-1.99E-10,,
,5.402998,-1.97E-10,,
,5.404998,-1.95E-10,,
,5.406998,-1.93E-10,,
,5.408998,-1.90E-10,,
,5.410998,-1.88E-10,,
,5.412998,-1.86E-10,,
,5.414998,-1.84E-10,,
,5.416998,-1.83E-10,,
,5.418998,-1.81E-10,,
,5.420998,-1.80E-10,,
,5.422998,-1.78E-10,,
,5.424998,-1.76E-10,,
,5.426998,-1.74E-10,,
,5.428998,-1.71E-10,,
,5.430998,-1.70E-10,,
,5.432998,-1.68E-10,,
,5.434998,-1.67E-10,,
,5.436998,-1.66E-10,,
,5.438998,-1.64E-10,,
,5.440998,-1.62E-10,,
,5.442998,-1.60E-10,,
,5.444998,-1.58E-10,,
,5.446998,-1.57E-10,,
,5.448998,-1.56E-10,,
,5.450998,-1.55E-10,,
,5.452998,-1.54E-10,,
,5.454998,-1.53E-10,,
,5.456998,-1.52E-10,,
,5.458998,-1.50E-10,,
,5.460998,-1.48E-10,,
,5.462998,-1.46E-10,,
,5.464998,-1.44E-10,,
,5.466998,-1.43E-10,,
,5.468998,-1.43E-10,,
,5.470998,-1.42E-10,,
,5.472998,-1.40E-10,,
,5.474998,-1.38E-10,,
,5.476998,-1.36E-10,,
,5.478998,-1.34E-10,,
,5.480998,-1.33E-10,,
,5.482998,-1.32E-10,,
,5.484998,-1.31E-10,,
,5.486998,-1.30E-10,,
,5.488998,-1.29E-10,,
,5.490998,-1.27E-10,,
,5.492998,-1.25E-10,,
,5.494998,-1.23E-10,,
,5.496998,-1.21E-10,,
,5.498998,-1.20E-10,,
,5.500998,-1.19E-10,,
,5.502998,-1.18E-10,,
,5.504998,-1.17E-10,,
,5.506998,-1.15E-10,,
,5.508998,-1.13E-10,,
,5.510998,-1.11E-10,,
,5.512998,-1.10E-10,,
,5.514998,-1.09E-10,,
,5.516998,-1.08E-10,,
,5.518998,-1.07E-10,,
,5.520998,-1.06E-10,,
,5.522998,-1.05E-10,,
,5.524998,-1.03E-10,,
,5.526998,-1.02E-10,,
,5.528998,-1.00E-10,,
,5.530998,-9.87E-11,,
,5.532998,-9.77E-11,,
,5.534998,-9.70E-11,,
,5.536998,-9.65E-11,,
,5.538998,-9.54E-11,,
,5.540998,-9.43E-11,,
,5.542998,-9.26E-11,,
,5.544998,-9.13E-11,,
,5.546998,-9.00E-11,,
,5.548998,-8.92E-11,,
,5.550998,-8.85E-11,,
,5.552998,-8.81E-11,,
,5.554998,-8.73E-11,,
,5.556998,-8.62E-11,,
,5.558998,-8.46E-11,,
,5.560998,-8.30E-11,,
,5.562998,-8.18E-11,,
,5.564998,-8.11E-11,,
,5.566998,-8.05E-11,,
,5.568998,-7.99E-11,,
,5.570998,-7.88E-11,,
,5.572998,-7.76E-11,,
,5.574998,-7.61E-11,,
,5.576998,-7.47E-11,,
,5.578998,-7.32E-11,,
,5.580998,-7.23E-11,,
,5.582998,-7.17E-11,,
,5.584998,-7.14E-11,,
,5.586998,-7.11E-11,,
,5.588998,-7.05E-11,,
,5.590998,-6.95E-11,,
,5.592998,-6.80E-11,,
,5.594998,-6.63E-11,,
,5.596998,-6.48E-11,,
,5.598998,-6.40E-11,,
,5.600998,-6.38E-11,,
,5.602998,-6.36E-11,,
,5.604998,-6.28E-11,,
,5.606998,-6.19E-11,,
,5.608998,-6.08E-11,,
,5.610998,-5.97E-11,,
,5.612998,-5.87E-11,,
,5.614998,-5.82E-11,,
,5.616998,-5.82E-11,,
,5.618998,-5.83E-11,,
,5.620998,-5.82E-11,,
,5.622998,-5.77E-11,,
,5.624998,-5.67E-11,,
,5.626998,-5.55E-11,,
,5.628998,-5.45E-11,,
,5.630998,-5.39E-11,,
,5.632998,-5.38E-11,,
,5.634998,-5.42E-11,,
,5.636998,-5.43E-11,,
,5.638998,-5.42E-11,,
,5.640998,-5.33E-11,,
,5.642998,-5.22E-11,,
,5.644998,-5.12E-11,,
,5.646998,-5.08E-11,,
,5.648998,-5.10E-11,,
,5.650998,-5.14E-11,,
,5.652998,-5.19E-11,,
,5.654998,-5.18E-11,,
,5.656998,-5.12E-11,,
,5.658998,-5.05E-11,,
,5.660998,-4.94E-11,,
,5.662998,-4.91E-11,,
,5.664998,-4.90E-11,,
,5.666998,-4.95E-11,,
,5.668998,-4.96E-11,,
,5.670998,-4.97E-11,,
,5.672998,-4.93E-11,,
,5.674998,-4.84E-11,,
,5.676998,-4.75E-11,,
,5.678998,-4.68E-11,,
,5.680998,-4.67E-11,,
,5.682998,-4.69E-11,,
,5.684998,-4.73E-11,,
,5.686998,-4.75E-11,,
,5.688998,-4.74E-11,,
,5.690998,-4.66E-11,,
,5.692998,-4.54E-11,,
,5.694998,-4.45E-11,,
,5.696998,-4.39E-11,,
,5.698998,-4.39E-11,,
,5.700998,-4.39E-11,,
,5.702998,-4.40E-11,,
,5.704998,-4.37E-11,,
,5.706998,-4.29E-11,,
,5.708998,-4.19E-11,,
,5.710998,-4.08E-11,,
,5.712998,-4.04E-11,,
,5.714998,-4.01E-11,,
,5.716998,-4.04E-11,,
,5.718998,-4.04E-11,,
,5.720998,-4.05E-11,,
,5.722998,-4.00E-11,,
,5.724998,-3.91E-11,,
,5.726998,-3.81E-11,,
,5.728998,-3.74E-11,,
,5.730998,-3.70E-11,,
,5.732998,-3.71E-11,,
,5.734998,-3.73E-11,,
,5.736998,-3.76E-11,,
,5.738998,-3.73E-11,,
,5.740998,-3.68E-11,,
,5.742998,-3.60E-11,,
,5.744998,-3.56E-11,,
,5.746998,-3.53E-11,,
,5.748998,-3.59E-11,,
,5.750998,-3.65E-11,,
,5.752998,-3.72E-11,,
,5.754998,-3.74E-11,,
,5.756998,-3.73E-11,,
,5.758998,-3.66E-11,,
,5.760998,-3.61E-11,,
,5.762998,-3.57E-11,,
,5.764998,-3.59E-11,,
,5.766998,-3.65E-11,,
,5.768998,-3.70E-11,,
,5.770998,-3.75E-11,,
,5.772998,-3.74E-11,,
,5.774998,-3.72E-11,,
,5.776998,-3.66E-11,,
,5.778998,-3.65E-11,,
,5.780998,-3.67E-11,,
,5.782998,-3.74E-11,,
,5.784998,-3.81E-11,,
,5.786998,-3.87E-11,,
,5.788998,-3.90E-11,,
,5.790998,-3.87E-11,,
,5.792998,-3.81E-11,,
,5.794998,-3.75E-11,,
,5.796998,-3.73E-11,,
,5.798998,-3.75E-11,,
,5.800998,-3.81E-11,,
,5.802998,-3.88E-11,,
,5.804998,-3.90E-11,,
,5.806998,-3.86E-11,,
,5.808998,-3.78E-11,,
,5.810998,-3.73E-11,,
,5.812998,-3.70E-11,,
,5.814998,-3.71E-11,,
,5.816998,-3.74E-11,,
,5.818998,-3.78E-11,,
,5.820998,-3.82E-11,,
,5.822998,-3.80E-11,,
,5.824998,-3.76E-11,,
,5.826998,-3.66E-11,,
,5.828998,-3.63E-11,,
,5.830998,-3.63E-11,,
,5.832998,-3.67E-11,,
,5.834998,-3.72E-11,,
,5.836998,-3.74E-11,,
,5.838998,-3.74E-11,,
,5.840998,-3.70E-11,,
,5.842998,-3.64E-11,,
,5.844998,-3.59E-11,,
,5.846998,-3.58E-11,,
,5.848998,-3.60E-11,,
,5.850998,-3.65E-11,,
,5.852998,-3.72E-11,,
,5.854998,-3.76E-11,,
,5.856998,-3.76E-11,,
,5.858998,-3.72E-11,,
,5.860998,-3.66E-11,,
,5.862998,-3.62E-11,,
,5.864998,-3.61E-11,,
,5.866998,-3.65E-11,,
,5.868998,-3.70E-11,,
,5.870998,-3.72E-11,,
,5.872998,-3.71E-11,,
,5.874998,-3.68E-11,,
,5.876998,-3.66E-11,,
,5.878998,-3.64E-11,,
,5.880998,-3.66E-11,,
,5.882998,-3.72E-11,,
,5.884998,-3.78E-11,,
,5.886998,-3.87E-11,,
,5.888998,-3.91E-11,,
,5.890998,-3.91E-11,,
,5.892998,-3.87E-11,,
,5.894998,-3.84E-11,,
,5.896998,-3.82E-11,,
,5.898998,-3.85E-11,,
,5.900998,-3.90E-11,,
,5.902998,-3.99E-11,,
,5.904998,-4.04E-11,,
,5.906998,-4.05E-11,,
,5.908998,-4.02E-11,,
,5.910998,-3.99E-11,,
,5.912998,-3.97E-11,,
,5.914998,-4.02E-11,,
,5.916998,-4.07E-11,,
,5.918998,-4.15E-11,,
,5.920998,-4.17E-11,,
,5.922998,-4.19E-11,,
,5.924998,-4.19E-11,,
,5.926998,-4.16E-11,,
,5.928998,-4.13E-11,,
,5.930998,-4.09E-11,,
,5.932998,-4.15E-11,,
,5.934998,-4.17E-11,,
,5.936998,-4.20E-11,,
,5.938998,-4.19E-11,,
,5.940998,-4.14E-11,,
,5.942998,-4.08E-11,,
,5.944998,-4.00E-11,,
,5.946998,-4.00E-11,,
,5.948998,-3.99E-11,,
,5.950998,-4.00E-11,,
,5.952998,-3.99E-11,,
,5.954998,-3.96E-11,,
,5.956998,-3.92E-11,,
,5.958998,-3.85E-11,,
,5.960998,-3.75E-11,,
,5.962998,-3.67E-11,,
,5.964998,-3.63E-11,,
,5.966998,-3.63E-11,,
,5.968998,-3.61E-11,,
,5.970998,-3.58E-11,,
,5.972998,-3.50E-11,,
,5.974998,-3.39E-11,,
,5.976998,-3.29E-11,,
,5.978998,-3.20E-11,,
,5.980998,-3.17E-11,,
,5.982998,-3.15E-11,,
,5.984998,-3.13E-11,,
,5.986998,-3.11E-11,,
,5.988998,-3.04E-11,,
,5.990998,-2.95E-11,,
,5.992998,-2.83E-11,,
,5.994998,-2.71E-11,,
,5.996998,-2.60E-11,,
,5.998998,-2.55E-11,,
,6.000998,-2.53E-11,,
,6.002998,-2.51E-11,,
,6.004998,-2.44E-11,,
,6.006998,-2.34E-11,,
,6.008998,-2.21E-11,,
,6.010998,-2.11E-11,,
,6.012998,-2.03E-11,,
,6.014998,-1.99E-11,,
,6.016998,-1.99E-11,,
,6.018998,-1.98E-11,,
,6.020998,-1.97E-11,,
,6.022998,-1.93E-11,,
,6.024998,-1.87E-11,,
,6.026998,-1.76E-11,,
,6.028998,-1.69E-11,,
,6.030998,-1.61E-11,,
,6.032998,-1.61E-11,,
,6.034998,-1.60E-11,,
,6.036998,-1.62E-11,,
,6.038998,-1.61E-11,,
,6.040998,-1.57E-11,,
,6.042998,-1.48E-11,,
,6.044998,-1.42E-11,,
,6.046998,-1.38E-11,,
,6.048998,-1.39E-11,,
,6.050998,-1.42E-11,,
,6.052998,-1.46E-11,,
,6.054998,-1.48E-11,,
,6.056998,-1.45E-11,,
,6.058998,-1.41E-11,,
,6.060998,-1.34E-11,,
,6.062998,-1.30E-11,,
,6.064998,-1.29E-11,,
,6.066998,-1.32E-11,,
,6.068998,-1.36E-11,,
,6.070998,-1.33E-11,,
,6.072998,-1.29E-11,,
,6.074998,-1.23E-11,,
,6.076998,-1.16E-11,,
,6.078998,-1.11E-11,,
,6.080998,-1.11E-11,,
,6.082998,-1.14E-11,,
,6.084998,-1.22E-11,,
,6.086998,-1.25E-11,,
,6.088998,-1.28E-11,,
,6.090998,-1.23E-11,,
,6.092998,-1.12E-11,,
,6.094998,-1.01E-11,,
,6.096998,-9.69E-12,,
,6.098998,-9.90E-12,,
,6.100998,-1.04E-11,,
,6.102998,-1.07E-11,,
,6.104998,-1.07E-11,,
,6.106998,-1.01E-11,,
,6.108998,-9.47E-12,,
,6.110998,-8.83E-12,,
,6.112998,-8.29E-12,,
,6.114998,-8.29E-12,,
,6.116998,-8.61E-12,,
,6.118998,-9.04E-12,,
,6.120998,-9.15E-12,,
,6.122998,-9.26E-12,,
,6.124998,-8.72E-12,,
,6.126998,-7.75E-12,,
,6.128998,-7.00E-12,,
,6.130998,-6.68E-12,,
,6.132998,-6.90E-12,,
,6.134998,-7.11E-12,,
,6.136998,-7.54E-12,,
,6.138998,-7.54E-12,,
,6.140998,-7.11E-12,,
,6.142998,-6.57E-12,,
,6.144998,-6.25E-12,,
,6.146998,-5.93E-12,,
,6.148998,-6.14E-12,,
,6.150998,-6.79E-12,,
,6.152998,-7.86E-12,,
,6.154998,-8.29E-12,,
,6.156998,-8.18E-12,,
,6.158998,-7.65E-12,,
,6.160998,-7.33E-12,,
,6.162998,-7.33E-12,,
,6.164998,-7.65E-12,,
,6.166998,-8.29E-12,,
,6.168998,-8.94E-12,,
,6.170998,-9.37E-12,,
,6.172998,-9.37E-12,,
,6.174998,-9.04E-12,,
,6.176998,-8.83E-12,,
,6.178998,-8.83E-12,,
,6.180998,-9.15E-12,,
,6.182998,-9.90E-12,,
,6.184998,-1.07E-11,,
,6.186998,-1.17E-11,,
,6.188998,-1.22E-11,,
,6.190998,-1.24E-11,,
,6.192998,-1.22E-11,,
,6.194998,-1.20E-11,,
,6.196998,-1.23E-11,,
,6.198998,-1.27E-11,,
,6.200998,-1.36E-11,,
,6.202998,-1.41E-11,,
,6.204998,-1.46E-11,,
,6.206998,-1.46E-11,,
,6.208998,-1.46E-11,,
,6.210998,-1.42E-11,,
,6.212998,-1.40E-11,,
,6.214998,-1.44E-11,,
,6.216998,-1.53E-11,,
,6.218998,-1.63E-11,,
,6.220998,-1.71E-11,,
,6.222998,-1.77E-11,,
,6.224998,-1.78E-11,,
,6.226998,-1.75E-11,,
,6.228998,-1.71E-11,,
,6.230998,-1.71E-11,,
,6.232998,-1.78E-11,,
,6.234998,-1.88E-11,,
,6.236998,-1.97E-11,,
,6.238998,-2.01E-11,,
,6.240998,-2.01E-11,,
,6.242998,-2.00E-11,,
,6.244998,-1.98E-11,,
,6.246998,-1.99E-11,,
,6.248998,-2.06E-11,,
,6.250998,-2.16E-11,,
,6.252998,-2.30E-11,,
,6.254998,-2.38E-11,,
,6.256998,-2.43E-11,,
,6.258998,-2.42E-11,,
,6.260998,-2.41E-11,,
,6.262998,-2.42E-11,,
,6.264998,-2.48E-11,,
,6.266998,-2.59E-11,,
,6.268998,-2.68E-11,,
,6.270998,-2.74E-11,,
,6.272998,-2.76E-11,,
,6.274998,-2.76E-11,,
,6.276998,-2.75E-11,,
,6.278998,-2.76E-11,,
,6.280998,-2.82E-11,,
,6.282998,-2.89E-11,,
,6.284998,-2.98E-11,,
,6.286998,-3.05E-11,,
,6.288998,-3.09E-11,,
,6.290998,-3.09E-11,,
,6.292998,-3.07E-11,,
,6.294998,-3.04E-11,,
,6.296998,-3.02E-11,,
,6.298998,-3.04E-11,,
,6.300998,-3.11E-11,,
,6.302998,-3.17E-11,,
,6.304998,-3.20E-11,,
,6.306998,-3.18E-11,,
,6.308998,-3.14E-11,,
,6.310998,-3.08E-11,,
,6.312998,-3.05E-11,,
,6.314998,-3.06E-11,,
,6.316998,-3.12E-11,,
,6.318998,-3.19E-11,,
,6.320998,-3.24E-11,,
,6.322998,-3.28E-11,,
,6.324998,-3.24E-11,,
,6.326998,-3.18E-11,,
,6.328998,-3.11E-11,,
,6.330998,-3.06E-11,,
,6.332998,-3.09E-11,,
,6.334998,-3.16E-11,,
,6.336998,-3.22E-11,,
,6.338998,-3.23E-11,,
,6.340998,-3.18E-11,,
,6.342998,-3.12E-11,,
,6.344998,-3.05E-11,,
,6.346998,-3.02E-11,,
,6.348998,-3.04E-11,,
,6.350998,-3.11E-11,,
,6.352998,-3.18E-11,,
,6.354998,-3.21E-11,,
,6.356998,-3.18E-11,,
,6.358998,-3.11E-11,,
,6.360998,-3.03E-11,,
,6.362998,-2.98E-11,,
,6.364998,-2.98E-11,,
,6.366998,-3.00E-11,,
,6.368998,-3.04E-11,,
,6.370998,-3.06E-11,,
,6.372998,-3.03E-11,,
,6.374998,-2.98E-11,,
,6.376998,-2.88E-11,,
,6.378998,-2.82E-11,,
,6.380998,-2.77E-11,,
,6.382998,-2.80E-11,,
,6.384998,-2.89E-11,,
,6.386998,-2.94E-11,,
,6.388998,-2.93E-11,,
,6.390998,-2.88E-11,,
,6.392998,-2.82E-11,,
,6.394998,-2.76E-11,,
,6.396998,-2.69E-11,,
,6.398998,-2.68E-11,,
,6.400998,-2.69E-11,,
,6.402998,-2.73E-11,,
,6.404998,-2.73E-11,,
,6.406998,-2.71E-11,,
,6.408998,-2.62E-11,,
,6.410998,-2.54E-11,,
,6.412998,-2.46E-11,,
,6.414998,-2.46E-11,,
,6.416998,-2.50E-11,,
,6.418998,-2.56E-11,,
,6.420998,-2.58E-11,,
,6.422998,-2.56E-11,,
,6.424998,-2.48E-11,,
,6.426998,-2.40E-11,,
,6.428998,-2.30E-11,,
,6.430998,-2.26E-11,,
,6.432998,-2.26E-11,,
,6.434998,-2.30E-11,,
,6.436998,-2.32E-11,,
,6.438998,-2.31E-11,,
,6.440998,-2.25E-11,,
,6.442998,-2.15E-11,,
,6.444998,-2.06E-11,,
,6.446998,-2.01E-11,,
,6.448998,-2.02E-11,,
,6.450998,-2.05E-11,,
,6.452998,-2.10E-11,,
,6.454998,-2.11E-11,,
,6.456998,-2.09E-11,,
,6.458998,-2.00E-11,,
,6.460998,-1.91E-11,,
,6.462998,-1.84E-11,,
,6.464998,-1.83E-11,,
,6.466998,-1.86E-11,,
,6.468998,-1.91E-11,,
,6.470998,-1.93E-11,,
,6.472998,-1.91E-11,,
,6.474998,-1.85E-11,,
,6.476998,-1.76E-11,,
,6.478998,-1.71E-11,,
,6.480998,-1.70E-11,,
,6.482998,-1.74E-11,,
,6.484998,-1.80E-11,,
,6.486998,-1.83E-11,,
,6.488998,-1.83E-11,,
,6.490998,-1.78E-11,,
,6.492998,-1.70E-11,,
,6.494998,-1.63E-11,,
,6.496998,-1.60E-11,,
,6.498998,-1.62E-11,,
,6.500998,-1.67E-11,,
,6.502998,-1.69E-11,,
,6.504998,-1.71E-11,,
,6.506998,-1.68E-11,,
,6.508998,-1.62E-11,,
,6.510998,-1.53E-11,,
,6.512998,-1.45E-11,,
,6.514998,-1.44E-11,,
,6.516998,-1.52E-11,,
,6.518998,-1.57E-11,,
,6.520998,-1.60E-11,,
,6.522998,-1.56E-11,,
,6.524998,-1.52E-11,,
,6.526998,-1.42E-11,,
,6.528998,-1.32E-11,,
,6.530998,-1.25E-11,,
,6.532998,-1.26E-11,,
,6.534998,-1.28E-11,,
,6.536998,-1.32E-11,,
,6.538998,-1.29E-11,,
,6.540998,-1.26E-11,,
,6.542998,-1.15E-11,,
,6.544998,-1.05E-11,,
,6.546998,-9.69E-12,,
,6.548998,-9.90E-12,,
,6.550998,-1.04E-11,,
,6.552998,-1.10E-11,,
,6.554998,-1.12E-11,,
,6.556998,-1.09E-11,,
,6.558998,-1.03E-11,,
,6.560998,-9.26E-12,,
,6.562998,-8.61E-12,,
,6.564998,-8.51E-12,,
,6.566998,-8.83E-12,,
,6.568998,-9.26E-12,,
,6.570998,-9.47E-12,,
,6.572998,-9.47E-12,,
,6.574998,-9.15E-12,,
,6.576998,-8.61E-12,,
,6.578998,-8.29E-12,,
,6.580998,-8.18E-12,,
,6.582998,-8.61E-12,,
,6.584998,-9.47E-12,,
,6.586998,-1.04E-11,,
,6.588998,-1.10E-11,,
,6.590998,-1.10E-11,,
,6.592998,-1.07E-11,,
,6.594998,-1.01E-11,,
,6.596998,-1.00E-11,,
,6.598998,-1.03E-11,,
,6.600998,-1.12E-11,,
,6.602998,-1.19E-11,,
,6.604998,-1.25E-11,,
,6.606998,-1.28E-11,,
,6.608998,-1.26E-11,,
,6.610998,-1.22E-11,,
,6.612998,-1.16E-11,,
,6.614998,-1.16E-11,,
,6.616998,-1.22E-11,,
,6.618998,-1.27E-11,,
,6.620998,-1.29E-11,,
,6.622998,-1.28E-11,,
,6.624998,-1.25E-11,,
,6.626998,-1.18E-11,,
,6.628998,-1.13E-11,,
,6.630998,-1.11E-11,,
,6.632998,-1.16E-11,,
,6.634998,-1.20E-11,,
,6.636998,-1.25E-11,,
,6.638998,-1.26E-11,,
,6.640998,-1.26E-11,,
,6.642998,-1.19E-11,,
,6.644998,-1.11E-11,,
,6.646998,-1.04E-11,,
,6.648998,-1.07E-11,,
,6.650998,-1.13E-11,,
,6.652998,-1.18E-11,,
,6.654998,-1.22E-11,,
,6.656998,-1.23E-11,,
,6.658998,-1.20E-11,,
,6.660998,-1.15E-11,,
,6.662998,-1.12E-11,,
,6.664998,-1.12E-11,,
,6.666998,-1.18E-11,,
,6.668998,-1.26E-11,,
,6.670998,-1.32E-11,,
,6.672998,-1.33E-11,,
,6.674998,-1.30E-11,,
,6.676998,-1.25E-11,,
,6.678998,-1.23E-11,,
,6.680998,-1.22E-11,,
,6.682998,-1.30E-11,,
,6.684998,-1.39E-11,,
,6.686998,-1.49E-11,,
,6.688998,-1.54E-11,,
,6.690998,-1.56E-11,,
,6.692998,-1.56E-11,,
,6.694998,-1.54E-11,,
,6.696998,-1.55E-11,,
,6.698998,-1.58E-11,,
,6.700998,-1.67E-11,,
,6.702998,-1.75E-11,,
,6.704998,-1.81E-11,,
,6.706998,-1.82E-11,,
,6.708998,-1.78E-11,,
,6.710998,-1.73E-11,,
,6.712998,-1.69E-11,,
,6.714998,-1.71E-11,,
,6.716998,-1.81E-11,,
,6.718998,-1.95E-11,,
,6.720998,-2.02E-11,,
,6.722998,-2.03E-11,,
,6.724998,-1.98E-11,,
,6.726998,-1.90E-11,,
,6.728998,-1.85E-11,,
,6.730998,-1.83E-11,,
,6.732998,-1.85E-11,,
,6.734998,-1.90E-11,,
,6.736998,-1.93E-11,,
,6.738998,-1.95E-11,,
,6.740998,-1.89E-11,,
,6.742998,-1.81E-11,,
,6.744998,-1.73E-11,,
,6.746998,-1.69E-11,,
,6.748998,-1.69E-11,,
,6.750998,-1.71E-11,,
,6.752998,-1.75E-11,,
,6.754998,-1.76E-11,,
,6.756998,-1.74E-11,,
,6.758998,-1.62E-11,,
,6.760998,-1.53E-11,,
,6.762998,-1.41E-11,,
,6.764998,-1.39E-11,,
,6.766998,-1.39E-11,,
,6.768998,-1.41E-11,,
,6.770998,-1.40E-11,,
,6.772998,-1.36E-11,,
,6.774998,-1.28E-11,,
,6.776998,-1.17E-11,,
,6.778998,-1.08E-11,,
,6.780998,-1.03E-11,,
,6.782998,-1.04E-11,,
,6.784998,-1.09E-11,,
,6.786998,-1.12E-11,,
,6.788998,-1.12E-11,,
,6.790998,-1.05E-11,,
,6.792998,-9.79E-12,,
,6.794998,-9.04E-12,,
,6.796998,-8.40E-12,,
,6.798998,-8.08E-12,,
,6.800998,-7.75E-12,,
,6.802998,-7.65E-12,,
,6.804998,-7.00E-12,,
,6.806998,-6.14E-12,,
,6.808998,-4.75E-12,,
,6.810998,-3.25E-12,,
,6.812998,-2.07E-12,,
,6.814998,-1.64E-12,,
,6.816998,-1.42E-12,,
,6.818998,-1.31E-12,,
,6.820998,-8.84E-13,,
,6.822998,-4.55E-13,,
,6.824998,2.97E-13,,
,6.826998,1.26E-12,,
,6.828998,2.34E-12,,
,6.830998,3.30E-12,,
,6.832998,3.62E-12,,
,6.834998,3.73E-12,,
,6.836998,3.73E-12,,
,6.838998,4.27E-12,,
,6.840998,5.02E-12,,
,6.842998,5.99E-12,,
,6.844998,6.74E-12,,
,6.846998,7.17E-12,,
,6.848998,7.27E-12,,
,6.850998,6.95E-12,,
,6.852998,6.63E-12,,
,6.854998,6.42E-12,,
,6.856998,6.74E-12,,
,6.858998,7.17E-12,,
,6.860998,7.92E-12,,
,6.862998,8.46E-12,,
,6.864998,8.67E-12,,
,6.866998,8.13E-12,,
,6.868998,7.60E-12,,
,6.870998,7.17E-12,,
,6.872998,7.17E-12,,
,6.874998,7.06E-12,,
,6.876998,7.27E-12,,
,6.878998,7.17E-12,,
,6.880998,7.17E-12,,
,6.882998,6.52E-12,,
,6.884998,5.77E-12,,
,6.886998,4.91E-12,,
,6.888998,4.38E-12,,
,6.890998,4.48E-12,,
,6.892998,4.48E-12,,
,6.894998,4.59E-12,,
,6.896998,4.16E-12,,
,6.898998,3.52E-12,,
,6.900998,2.44E-12,,
,6.902998,1.48E-12,,
,6.904998,9.41E-13,,
,6.906998,6.19E-13,,
,6.908998,5.11E-13,,
,6.910998,4.04E-13,,
,6.912998,2.97E-13,,
,6.914998,-3.47E-13,,
,6.916998,-1.42E-12,,
,6.918998,-2.60E-12,,
,6.920998,-3.57E-12,,
,6.922998,-4.10E-12,,
,6.924998,-4.43E-12,,
,6.926998,-4.32E-12,,
,6.928998,-4.10E-12,,
,6.930998,-4.21E-12,,
,6.932998,-4.75E-12,,
,6.934998,-5.61E-12,,
,6.936998,-5.82E-12,,
,6.938998,-5.93E-12,,
,6.940998,-5.61E-12,,
,6.942998,-5.39E-12,,
,6.944998,-5.07E-12,,
,6.946998,-5.18E-12,,
,6.948998,-5.61E-12,,
,6.950998,-6.14E-12,,
,6.952998,-6.68E-12,,
,6.954998,-6.79E-12,,
,6.956998,-6.68E-12,,
,6.958998,-6.36E-12,,
,6.960998,-6.14E-12,,
,6.962998,-5.93E-12,,
,6.964998,-6.04E-12,,
,6.966998,-6.36E-12,,
,6.968998,-7.00E-12,,
,6.970998,-7.22E-12,,
,6.972998,-7.22E-12,,
,6.974998,-6.57E-12,,
,6.976998,-6.04E-12,,
,6.978998,-5.50E-12,,
,6.980998,-5.50E-12,,
,6.982998,-5.61E-12,,
,6.984998,-5.61E-12,,
,6.986998,-5.82E-12,,
,6.988998,-5.82E-12,,
,6.990998,-5.72E-12,,
,6.992998,-4.86E-12,,
,6.994998,-3.78E-12,,
,6.996998,-3.03E-12,,
,6.998998,-2.92E-12,,
,7.000998,-2.92E-12,,
,7.002998,-2.82E-12,,
,7.004998,-2.28E-12,,
,7.006998,-1.74E-12,,
,7.008998,-9.92E-13,,
,7.010998,8.20E-14,,
,7.012998,1.16E-12,,
,7.014998,1.80E-12,,
,7.016998,1.80E-12,,
,7.018998,1.59E-12,,
,7.020998,1.69E-12,,
,7.022998,2.23E-12,,
,7.024998,3.41E-12,,
,7.026998,4.81E-12,,
,7.028998,6.09E-12,,
,7.030998,6.95E-12,,
,7.032998,7.38E-12,,
,7.034998,7.70E-12,,
,7.036998,8.03E-12,,
,7.038998,8.67E-12,,
,7.040998,9.64E-12,,
,7.042998,1.08E-11,,
,7.044998,1.18E-11,,
,7.046998,1.28E-11,,
,7.048998,1.31E-11,,
,7.050998,1.33E-11,,
,7.052998,1.32E-11,,
,7.054998,1.36E-11,,
,7.056998,1.41E-11,,
,7.058998,1.51E-11,,
,7.060998,1.61E-11,,
,7.062998,1.70E-11,,
,7.064998,1.75E-11,,
,7.066998,1.75E-11,,
,7.068998,1.76E-11,,
,7.070998,1.78E-11,,
,7.072998,1.85E-11,,
,7.074998,1.95E-11,,
,7.076998,2.05E-11,,
,7.078998,2.11E-11,,
,7.080998,2.13E-11,,
,7.082998,2.16E-11,,
,7.084998,2.14E-11,,
,7.086998,2.14E-11,,
,7.088998,2.17E-11,,
,7.090998,2.23E-11,,
,7.092998,2.33E-11,,
,7.094998,2.41E-11,,
,7.096998,2.48E-11,,
,7.098998,2.51E-11,,
,7.100998,2.50E-11,,
,7.102998,2.50E-11,,
,7.104998,2.52E-11,,
,7.106998,2.58E-11,,
,7.108998,2.66E-11,,
,7.110998,2.75E-11,,
,7.112998,2.81E-11,,
,7.114998,2.83E-11,,
,7.116998,2.81E-11,,
,7.118998,2.77E-11,,
,7.120998,2.77E-11,,
,7.122998,2.79E-11,,
,7.124998,2.84E-11,,
,7.126998,2.90E-11,,
,7.128998,2.95E-11,,
,7.130998,3.00E-11,,
,7.132998,3.02E-11,,
,7.134998,3.01E-11,,
,7.136998,2.99E-11,,
,7.138998,3.00E-11,,
,7.140998,3.04E-11,,
,7.142998,3.11E-11,,
,7.144998,3.15E-11,,
,7.146998,3.19E-11,,
,7.148998,3.14E-11,,
,7.150998,3.09E-11,,
,7.152998,3.05E-11,,
,7.154998,3.02E-11,,
,7.156998,3.05E-11,,
,7.158998,3.08E-11,,
,7.160998,3.15E-11,,
,7.162998,3.22E-11,,
,7.164998,3.23E-11,,
,7.166998,3.20E-11,,
,7.168998,3.13E-11,,
,7.170998,3.09E-11,,
,7.172998,3.07E-11,,
,7.174998,3.09E-11,,
,7.176998,3.14E-11,,
,7.178998,3.19E-11,,
,7.180998,3.20E-11,,
,7.182998,3.18E-11,,
,7.184998,3.11E-11,,
,7.186998,3.06E-11,,
,7.188998,3.01E-11,,
,7.190998,3.05E-11,,
,7.192998,3.10E-11,,
,7.194998,3.15E-11,,
,7.196998,3.18E-11,,
,7.198998,3.15E-11,,
,7.200998,3.11E-11,,
,7.202998,3.07E-11,,
,7.204998,3.05E-11,,
,7.206998,3.07E-11,,
,7.208998,3.10E-11,,
,7.210998,3.15E-11,,
,7.212998,3.19E-11,,
,7.214998,3.19E-11,,
,7.216998,3.14E-11,,
,7.218998,3.08E-11,,
,7.220998,3.04E-11,,
,7.222998,3.01E-11,,
,7.224998,3.04E-11,,
,7.226998,3.08E-11,,
,7.228998,3.12E-11,,
,7.230998,3.15E-11,,
,7.232998,3.13E-11,,
,7.234998,3.09E-11,,
,7.236998,3.02E-11,,
,7.238998,2.98E-11,,
,7.240998,3.01E-11,,
,7.242998,3.08E-11,,
,7.244998,3.15E-11,,
,7.246998,3.15E-11,,
,7.248998,3.12E-11,,
,7.250998,3.06E-11,,
,7.252998,2.99E-11,,
,7.254998,2.92E-11,,
,7.256998,2.92E-11,,
,7.258998,2.96E-11,,
,7.260998,3.05E-11,,
,7.262998,3.11E-11,,
,7.264998,3.13E-11,,
,7.266998,3.11E-11,,
,7.268998,3.05E-11,,
,7.270998,3.01E-11,,
,7.272998,3.02E-11,,
,7.274998,3.06E-11,,
,7.276998,3.10E-11,,
,7.278998,3.13E-11,,
,7.280998,3.16E-11,,
,7.282998,3.14E-11,,
,7.284998,3.11E-11,,
,7.286998,3.09E-11,,
,7.288998,3.11E-11,,
,7.290998,3.14E-11,,
,7.292998,3.21E-11,,
,7.294998,3.28E-11,,
,7.296998,3.34E-11,,
,7.298998,3.33E-11,,
,7.300998,3.27E-11,,
,7.302998,3.24E-11,,
,7.304998,3.22E-11,,
,7.306998,3.24E-11,,
,7.308998,3.29E-11,,
,7.310998,3.37E-11,,
,7.312998,3.43E-11,,
,7.314998,3.43E-11,,
,7.316998,3.39E-11,,
,7.318998,3.34E-11,,
,7.320998,3.27E-11,,
,7.322998,3.27E-11,,
,7.324998,3.27E-11,,
,7.326998,3.34E-11,,
,7.328998,3.38E-11,,
,7.330998,3.40E-11,,
,7.332998,3.38E-11,,
,7.334998,3.34E-11,,
,7.336998,3.33E-11,,
,7.338998,3.31E-11,,
,7.340998,3.33E-11,,
,7.342998,3.35E-11,,
,7.344998,3.39E-11,,
,7.346998,3.44E-11,,
,7.348998,3.45E-11,,
,7.350998,3.45E-11,,
,7.352998,3.43E-11,,
,7.354998,3.45E-11,,
,7.356998,3.48E-11,,
,7.358998,3.54E-11,,
,7.360998,3.59E-11,,
,7.362998,3.66E-11,,
,7.364998,3.67E-11,,
,7.366998,3.66E-11,,
,7.368998,3.65E-11,,
,7.370998,3.66E-11,,
,7.372998,3.70E-11,,
,7.374998,3.74E-11,,
,7.376998,3.81E-11,,
,7.378998,3.86E-11,,
,7.380998,3.91E-11,,
,7.382998,3.91E-11,,
,7.384998,3.89E-11,,
,7.386998,3.88E-11,,
,7.388998,3.89E-11,,
,7.390998,3.92E-11,,
,7.392998,3.96E-11,,
,7.394998,4.00E-11,,
,7.396998,4.02E-11,,
,7.398998,4.02E-11,,
,7.400998,4.01E-11,,
,7.402998,3.97E-11,,
,7.404998,3.96E-11,,
,7.406998,3.96E-11,,
,7.408998,4.01E-11,,
,7.410998,4.08E-11,,
,7.412998,4.11E-11,,
,7.414998,4.11E-11,,
,7.416998,4.04E-11,,
,7.418998,3.99E-11,,
,7.420998,3.95E-11,,
,7.422998,3.93E-11,,
,7.424998,3.94E-11,,
,7.426998,3.96E-11,,
,7.428998,3.99E-11,,
,7.430998,4.00E-11,,
,7.432998,3.98E-11,,
,7.434998,3.93E-11,,
,7.436998,3.86E-11,,
,7.438998,3.83E-11,,
,7.440998,3.83E-11,,
,7.442998,3.84E-11,,
,7.444998,3.87E-11,,
,7.446998,3.86E-11,,
,7.448998,3.84E-11,,
,7.450998,3.77E-11,,
,7.452998,3.71E-11,,
,7.454998,3.66E-11,,
,7.456998,3.64E-11,,
,7.458998,3.62E-11,,
,7.460998,3.62E-11,,
,7.462998,3.60E-11,,
,7.464998,3.57E-11,,
,7.466998,3.50E-11,,
,7.468998,3.41E-11,,
,7.470998,3.35E-11,,
,7.472998,3.30E-11,,
,7.474998,3.28E-11,,
,7.476998,3.27E-11,,
,7.478998,3.25E-11,,
,7.480998,3.22E-11,,
,7.482998,3.13E-11,,
,7.484998,3.05E-11,,
,7.486998,2.96E-11,,
,7.488998,2.92E-11,,
,7.490998,2.90E-11,,
,7.492998,2.89E-11,,
,7.494998,2.87E-11,,
,7.496998,2.85E-11,,
,7.498998,2.80E-11,,
,7.500998,2.74E-11,,
,7.502998,2.65E-11,,
,7.504998,2.61E-11,,
,7.506998,2.55E-11,,
,7.508998,2.56E-11,,
,7.510998,2.55E-11,,
,7.512998,2.55E-11,,
,7.514998,2.53E-11,,
,7.516998,2.49E-11,,
,7.518998,2.46E-11,,
,7.520998,2.39E-11,,
,7.522998,2.36E-11,,
,7.524998,2.33E-11,,
,7.526998,2.31E-11,,
,7.528998,2.28E-11,,
,7.530998,2.29E-11,,
,7.532998,2.27E-11,,
,7.534998,2.21E-11,,
,7.536998,2.11E-11,,
,7.538998,2.05E-11,,
,7.540998,2.04E-11,,
,7.542998,2.06E-11,,
,7.544998,2.08E-11,,
,7.546998,2.09E-11,,
,7.548998,2.04E-11,,
,7.550998,1.97E-11,,
,7.552998,1.91E-11,,
,7.554998,1.87E-11,,
,7.556998,1.82E-11,,
,7.558998,1.79E-11,,
,7.560998,1.78E-11,,
,7.562998,1.78E-11,,
,7.564998,1.74E-11,,
,7.566998,1.66E-11,,
,7.568998,1.58E-11,,
,7.570998,1.51E-11,,
,7.572998,1.47E-11,,
,7.574998,1.45E-11,,
,7.576998,1.43E-11,,
,7.578998,1.43E-11,,
,7.580998,1.40E-11,,
,7.582998,1.36E-11,,
,7.584998,1.29E-11,,
,7.586998,1.22E-11,,
,7.588998,1.16E-11,,
,7.590998,1.12E-11,,
,7.592998,1.09E-11,,
,7.594998,1.08E-11,,
,7.596998,1.05E-11,,
,7.598998,1.03E-11,,
,7.600998,9.64E-12,,
,7.602998,9.10E-12,,
,7.604998,8.56E-12,,
,7.606998,8.67E-12,,
,7.608998,8.78E-12,,
,7.610998,8.89E-12,,
,7.612998,8.99E-12,,
,7.614998,8.78E-12,,
,7.616998,8.56E-12,,
,7.618998,8.13E-12,,
,7.620998,7.70E-12,,
,7.622998,7.49E-12,,
,7.624998,7.38E-12,,
,7.626998,7.92E-12,,
,7.628998,8.24E-12,,
,7.630998,8.56E-12,,
,7.632998,8.24E-12,,
,7.634998,7.92E-12,,
,7.636998,7.70E-12,,
,7.638998,7.70E-12,,
,7.640998,8.13E-12,,
,7.642998,8.67E-12,,
,7.644998,9.31E-12,,
,7.646998,9.74E-12,,
,7.648998,9.85E-12,,
,7.650998,9.74E-12,,
,7.652998,9.64E-12,,
,7.654998,9.42E-12,,
,7.656998,9.74E-12,,
,7.658998,1.01E-11,,
,7.660998,1.07E-11,,
,7.662998,1.12E-11,,
,7.664998,1.14E-11,,
,7.666998,1.14E-11,,
,7.668998,1.09E-11,,
,7.670998,1.07E-11,,
,7.672998,1.08E-11,,
,7.674998,1.15E-11,,
,7.676998,1.22E-11,,
,7.678998,1.32E-11,,
,7.680998,1.35E-11,,
,7.682998,1.38E-11,,
,7.684998,1.35E-11,,
,7.686998,1.35E-11,,
,7.688998,1.36E-11,,
,7.690998,1.37E-11,,
,7.692998,1.41E-11,,
,7.694998,1.45E-11,,
,7.696998,1.49E-11,,
,7.698998,1.48E-11,,
,7.700998,1.46E-11,,
,7.702998,1.41E-11,,
,7.704998,1.43E-11,,
,7.706998,1.44E-11,,
,7.708998,1.49E-11,,
,7.710998,1.54E-11,,
,7.712998,1.62E-11,,
,7.714998,1.66E-11,,
,7.716998,1.65E-11,,
,7.718998,1.61E-11,,
,7.720998,1.60E-11,,
,7.722998,1.61E-11,,
,7.724998,1.64E-11,,
,7.726998,1.68E-11,,
,7.728998,1.72E-11,,
,7.730998,1.73E-11,,
,7.732998,1.73E-11,,
,7.734998,1.73E-11,,
,7.736998,1.75E-11,,
,7.738998,1.79E-11,,
,7.740998,1.87E-11,,
,7.742998,1.95E-11,,
,7.744998,1.99E-11,,
,7.746998,2.04E-11,,
,7.748998,2.04E-11,,
,7.750998,2.05E-11,,
,7.752998,2.02E-11,,
,7.754998,2.01E-11,,
,7.756998,1.99E-11,,
,7.758998,2.04E-11,,
,7.760998,2.10E-11,,
,7.762998,2.18E-11,,
,7.764998,2.20E-11,,
,7.766998,2.19E-11,,
,7.768998,2.14E-11,,
,7.770998,2.12E-11,,
,7.772998,2.13E-11,,
,7.774998,2.17E-11,,
,7.776998,2.20E-11,,
,7.778998,2.23E-11,,
,7.780998,2.25E-11,,
,7.782998,2.26E-11,,
,7.784998,2.24E-11,,
,7.786998,2.21E-11,,
,7.788998,2.18E-11,,
,7.790998,2.17E-11,,
,7.792998,2.18E-11,,
,7.794998,2.21E-11,,
,7.796998,2.22E-11,,
,7.798998,2.20E-11,,
,7.800998,2.14E-11,,
,7.802998,2.12E-11,,
,7.804998,2.10E-11,,
,7.806998,2.13E-11,,
,7.808998,2.16E-11,,
,7.810998,2.24E-11,,
,7.812998,2.27E-11,,
,7.814998,2.29E-11,,
,7.816998,2.24E-11,,
,7.818998,2.21E-11,,
,7.820998,2.16E-11,,
,7.822998,2.16E-11,,
,7.824998,2.14E-11,,
,7.826998,2.21E-11,,
,7.828998,2.24E-11,,
,7.830998,2.31E-11,,
,7.832998,2.29E-11,,
,7.834998,2.32E-11,,
,7.836998,2.32E-11,,
,7.838998,2.36E-11,,
,7.840998,2.41E-11,,
,7.842998,2.49E-11,,
,7.844998,2.55E-11,,
,7.846998,2.58E-11,,
,7.848998,2.60E-11,,
,7.850998,2.58E-11,,
,7.852998,2.55E-11,,
,7.854998,2.54E-11,,
,7.856998,2.55E-11,,
,7.858998,2.60E-11,,
,7.860998,2.63E-11,,
,7.862998,2.67E-11,,
,7.864998,2.68E-11,,
,7.866998,2.66E-11,,
,7.868998,2.63E-11,,
,7.870998,2.60E-11,,
,7.872998,2.60E-11,,
,7.874998,2.61E-11,,
,7.876998,2.65E-11,,
,7.878998,2.68E-11,,
,7.880998,2.68E-11,,
,7.882998,2.64E-11,,
,7.884998,2.56E-11,,
,7.886998,2.49E-11,,
,7.888998,2.43E-11,,
,7.890998,2.39E-11,,
,7.892998,2.37E-11,,
,7.894998,2.34E-11,,
,7.896998,2.33E-11,,
,7.898998,2.26E-11,,
,7.900998,2.21E-11,,
,7.902998,2.12E-11,,
,7.904998,2.08E-11,,
,7.906998,2.03E-11,,
,7.908998,2.03E-11,,
,7.910998,2.03E-11,,
,7.912998,2.03E-11,,
,7.914998,1.97E-11,,
,7.916998,1.92E-11,,
,7.918998,1.85E-11,,
,7.920998,1.82E-11,,
,7.922998,1.79E-11,,
,7.924998,1.81E-11,,
,7.926998,1.82E-11,,
,7.928998,1.83E-11,,
,7.930998,1.83E-11,,
,7.932998,1.81E-11,,
,7.934998,1.80E-11,,
,7.936998,1.78E-11,,
,7.938998,1.80E-11,,
,7.940998,1.85E-11,,
,7.942998,1.92E-11,,
,7.944998,1.99E-11,,
,7.946998,2.05E-11,,
,7.948998,2.07E-11,,
,7.950998,2.07E-11,,
,7.952998,2.06E-11,,
,7.954998,2.09E-11,,
,7.956998,2.14E-11,,
,7.958998,2.23E-11,,
,7.960998,2.31E-11,,
,7.962998,2.39E-11,,
,7.964998,2.41E-11,,
,7.966998,2.43E-11,,
,7.968998,2.45E-11,,
,7.970998,2.50E-11,,
,7.972998,2.61E-11,,
,7.974998,2.69E-11,,
,7.976998,2.83E-11,,
,7.978998,2.94E-11,,
,7.980998,3.02E-11,,
,7.982998,3.07E-11,,
,7.984998,3.09E-11,,
,7.986998,3.15E-11,,
,7.988998,3.22E-11,,
,7.990998,3.27E-11,,
,7.992998,3.37E-11,,
,7.994998,3.47E-11,,
,7.996998,3.58E-11,,
,7.998998,3.63E-11,,
,8.000998,3.64E-11,,
,8.002998,3.65E-11,,
,8.004998,3.71E-11,,
,8.006998,3.78E-11,,
,8.008998,3.86E-11,,
,8.010998,3.95E-11,,
,8.012998,4.07E-11,,
,8.014998,4.12E-11,,
,8.016998,4.13E-11,,
,8.018998,4.13E-11,,
,8.020998,4.14E-11,,
,8.022998,4.15E-11,,
,8.024998,4.17E-11,,
,8.026998,4.24E-11,,
,8.028998,4.31E-11,,
,8.030998,4.37E-11,,
,8.032998,4.36E-11,,
,8.034998,4.31E-11,,
,8.036998,4.28E-11,,
,8.038998,4.27E-11,,
,8.040998,4.29E-11,,
,8.042998,4.33E-11,,
,8.044998,4.40E-11,,
,8.046998,4.44E-11,,
,8.048998,4.44E-11,,
,8.050998,4.39E-11,,
,8.052998,4.36E-11,,
,8.054998,4.33E-11,,
,8.056998,4.33E-11,,
,8.058998,4.33E-11,,
,8.060998,4.32E-11,,
,8.062998,4.32E-11,,
,8.064998,4.33E-11,,
,8.066998,4.30E-11,,
,8.068998,4.26E-11,,
,8.070998,4.21E-11,,
,8.072998,4.20E-11,,
,8.074998,4.21E-11,,
,8.076998,4.24E-11,,
,8.078998,4.26E-11,,
,8.080998,4.26E-11,,
,8.082998,4.20E-11,,
,8.084998,4.11E-11,,
,8.086998,4.02E-11,,
,8.088998,3.98E-11,,
,8.090998,3.96E-11,,
,8.092998,3.96E-11,,
,8.094998,3.95E-11,,
,8.096998,3.92E-11,,
,8.098998,3.87E-11,,
,8.100998,3.80E-11,,
,8.102998,3.74E-11,,
,8.104998,3.68E-11,,
,8.106998,3.65E-11,,
,8.108998,3.63E-11,,
,8.110998,3.62E-11,,
,8.112998,3.60E-11,,
,8.114998,3.55E-11,,
,8.116998,3.50E-11,,
,8.118998,3.38E-11,,
,8.120998,3.31E-11,,
,8.122998,3.25E-11,,
,8.124998,3.25E-11,,
,8.126998,3.24E-11,,
,8.128998,3.23E-11,,
,8.130998,3.21E-11,,
,8.132998,3.14E-11,,
,8.134998,3.08E-11,,
,8.136998,3.00E-11,,
,8.138998,2.96E-11,,
,8.140998,2.93E-11,,
,8.142998,2.93E-11,,
,8.144998,2.94E-11,,
,8.146998,2.95E-11,,
,8.148998,2.92E-11,,
,8.150998,2.85E-11,,
,8.152998,2.78E-11,,
,8.154998,2.71E-11,,
,8.156998,2.67E-11,,
,8.158998,2.64E-11,,
,8.160998,2.62E-11,,
,8.162998,2.63E-11,,
,8.164998,2.60E-11,,
,8.166998,2.54E-11,,
,8.168998,2.46E-11,,
,8.170998,2.39E-11,,
,8.172998,2.36E-11,,
,8.174998,2.36E-11,,
,8.176998,2.39E-11,,
,8.178998,2.40E-11,,
,8.180998,2.36E-11,,
,8.182998,2.28E-11,,
,8.184998,2.23E-11,,
,8.186998,2.19E-11,,
,8.188998,2.14E-11,,
,8.190998,2.11E-11,,
,8.192998,2.10E-11,,
,8.194998,2.11E-11,,
,8.196998,2.08E-11,,
,8.198998,2.05E-11,,
,8.200998,1.98E-11,,
,8.202998,1.95E-11,,
,8.204998,1.93E-11,,
,8.206998,1.94E-11,,
,8.208998,1.97E-11,,
,8.210998,2.01E-11,,
,8.212998,2.05E-11,,
,8.214998,2.06E-11,,
,8.216998,2.03E-11,,
,8.218998,1.96E-11,,
,8.220998,1.89E-11,,
,8.222998,1.87E-11,,
,8.224998,1.85E-11,,
,8.226998,1.87E-11,,
,8.228998,1.88E-11,,
,8.230998,1.89E-11,,
,8.232998,1.90E-11,,
,8.234998,1.88E-11,,
,8.236998,1.84E-11,,
,8.238998,1.83E-11,,
,8.240998,1.83E-11,,
,8.242998,1.88E-11,,
,8.244998,1.92E-11,,
,8.246998,1.95E-11,,
,8.248998,1.94E-11,,
,8.250998,1.90E-11,,
,8.252998,1.84E-11,,
,8.254998,1.82E-11,,
,8.256998,1.80E-11,,
,8.258998,1.83E-11,,
,8.260998,1.88E-11,,
,8.262998,1.93E-11,,
,8.264998,1.95E-11,,
,8.266998,1.95E-11,,
,8.268998,1.93E-11,,
,8.270998,1.91E-11,,
,8.272998,1.90E-11,,
,8.274998,1.93E-11,,
,8.276998,1.98E-11,,
,8.278998,2.03E-11,,
,8.280998,2.06E-11,,
,8.282998,2.06E-11,,
,8.284998,2.05E-11,,
,8.286998,2.03E-11,,
,8.288998,2.02E-11,,
,8.290998,2.05E-11,,
,8.292998,2.09E-11,,
,8.294998,2.17E-11,,
,8.296998,2.20E-11,,
,8.298998,2.21E-11,,
,8.300998,2.18E-11,,
,8.302998,2.17E-11,,
,8.304998,2.18E-11,,
,8.306998,2.20E-11,,
,8.308998,2.26E-11,,
,8.310998,2.34E-11,,
,8.312998,2.43E-11,,
,8.314998,2.47E-11,,
,8.316998,2.47E-11,,
,8.318998,2.43E-11,,
,8.320998,2.41E-11,,
,8.322998,2.41E-11,,
,8.324998,2.43E-11,,
,8.326998,2.48E-11,,
,8.328998,2.53E-11,,
,8.330998,2.57E-11,,
,8.332998,2.58E-11,,
,8.334998,2.56E-11,,
,8.336998,2.53E-11,,
,8.338998,2.52E-11,,
,8.340998,2.52E-11,,
,8.342998,2.55E-11,,
,8.344998,2.62E-11,,
,8.346998,2.66E-11,,
,8.348998,2.67E-11,,
,8.350998,2.63E-11,,
,8.352998,2.57E-11,,
,8.354998,2.55E-11,,
,8.356998,2.54E-11,,
,8.358998,2.56E-11,,
,8.360998,2.57E-11,,
,8.362998,2.58E-11,,
,8.364998,2.58E-11,,
,8.366998,2.54E-11,,
,8.368998,2.51E-11,,
,8.370998,2.49E-11,,
,8.372998,2.49E-11,,
,8.374998,2.49E-11,,
,8.376998,2.52E-11,,
,8.378998,2.58E-11,,
,8.380998,2.64E-11,,
,8.382998,2.67E-11,,
,8.384998,2.67E-11,,
,8.386998,2.66E-11,,
,8.388998,2.65E-11,,
,8.390998,2.65E-11,,
,8.392998,2.71E-11,,
,8.394998,2.77E-11,,
,8.396998,2.81E-11,,
,8.398998,2.80E-11,,
,8.400998,2.80E-11,,
,8.402998,2.78E-11,,
,8.404998,2.78E-11,,
,8.406998,2.78E-11,,
,8.408998,2.83E-11,,
,8.410998,2.87E-11,,
,8.412998,2.92E-11,,
,8.414998,2.94E-11,,
,8.416998,2.92E-11,,
,8.418998,2.86E-11,,
,8.420998,2.81E-11,,
,8.422998,2.78E-11,,
,8.424998,2.75E-11,,
,8.426998,2.74E-11,,
,8.428998,2.75E-11,,
,8.430998,2.75E-11,,
,8.432998,2.71E-11,,
,8.434998,2.65E-11,,
,8.436998,2.60E-11,,
,8.438998,2.57E-11,,
,8.440998,2.55E-11,,
,8.442998,2.56E-11,,
,8.444998,2.57E-11,,
,8.446998,2.61E-11,,
,8.448998,2.61E-11,,
,8.450998,2.55E-11,,
,8.452998,2.51E-11,,
,8.454998,2.48E-11,,
,8.456998,2.48E-11,,
,8.458998,2.49E-11,,
,8.460998,2.51E-11,,
,8.462998,2.54E-11,,
,8.464998,2.56E-11,,
,8.466998,2.55E-11,,
,8.468998,2.50E-11,,
,8.470998,2.46E-11,,
,8.472998,2.46E-11,,
,8.474998,2.50E-11,,
,8.476998,2.53E-11,,
,8.478998,2.60E-11,,
,8.480998,2.63E-11,,
,8.482998,2.64E-11,,
,8.484998,2.61E-11,,
,8.486998,2.60E-11,,
,8.488998,2.58E-11,,
,8.490998,2.61E-11,,
,8.492998,2.65E-11,,
,8.494998,2.71E-11,,
,8.496998,2.76E-11,,
,8.498998,2.77E-11,,
,8.500998,2.74E-11,,
,8.502998,2.71E-11,,
,8.504998,2.71E-11,,
,8.506998,2.76E-11,,
,8.508998,2.81E-11,,
,8.510998,2.89E-11,,
,8.512998,2.97E-11,,
,8.514998,3.04E-11,,
,8.516998,3.04E-11,,
,8.518998,3.01E-11,,
,8.520998,3.01E-11,,
,8.522998,3.06E-11,,
,8.524998,3.09E-11,,
,8.526998,3.11E-11,,
,8.528998,3.15E-11,,
,8.530998,3.19E-11,,
,8.532998,3.20E-11,,
,8.534998,3.18E-11,,
,8.536998,3.18E-11,,
,8.538998,3.16E-11,,
,8.540998,3.19E-11,,
,8.542998,3.23E-11,,
,8.544998,3.29E-11,,
,8.546998,3.35E-11,,
,8.548998,3.34E-11,,
,8.550998,3.31E-11,,
,8.552998,3.24E-11,,
,8.554998,3.20E-11,,
,8.556998,3.16E-11,,
,8.558998,3.16E-11,,
,8.560998,3.20E-11,,
,8.562998,3.22E-11,,
,8.564998,3.22E-11,,
,8.566998,3.18E-11,,
,8.568998,3.13E-11,,
,8.570998,3.07E-11,,
,8.572998,3.04E-11,,
,8.574998,3.01E-11,,
,8.576998,3.05E-11,,
,8.578998,3.07E-11,,
,8.580998,3.07E-11,,
,8.582998,3.01E-11,,
,8.584998,2.94E-11,,
,8.586998,2.87E-11,,
,8.588998,2.83E-11,,
,8.590998,2.80E-11,,
,8.592998,2.80E-11,,
,8.594998,2.80E-11,,
,8.596998,2.82E-11,,
,8.598998,2.78E-11,,
,8.600998,2.72E-11,,
,8.602998,2.67E-11,,
,8.604998,2.63E-11,,
,8.606998,2.61E-11,,
,8.608998,2.61E-11,,
,8.610998,2.62E-11,,
,8.612998,2.68E-11,,
,8.614998,2.67E-11,,
,8.616998,2.65E-11,,
,8.618998,2.58E-11,,
,8.620998,2.53E-11,,
,8.622998,2.53E-11,,
,8.624998,2.53E-11,,
,8.626998,2.57E-11,,
,8.628998,2.60E-11,,
,8.630998,2.62E-11,,
,8.632998,2.60E-11,,
,8.634998,2.56E-11,,
,8.636998,2.52E-11,,
,8.638998,2.50E-11,,
,8.640998,2.50E-11,,
,8.642998,2.54E-11,,
,8.644998,2.63E-11,,
,8.646998,2.68E-11,,
,8.648998,2.69E-11,,
,8.650998,2.66E-11,,
,8.652998,2.62E-11,,
,8.654998,2.61E-11,,
,8.656998,2.58E-11,,
,8.658998,2.60E-11,,
,8.660998,2.62E-11,,
,8.662998,2.65E-11,,
,8.664998,2.67E-11,,
,8.666998,2.62E-11,,
,8.668998,2.57E-11,,
,8.670998,2.52E-11,,
,8.672998,2.54E-11,,
,8.674998,2.56E-11,,
,8.676998,2.61E-11,,
,8.678998,2.65E-11,,
,8.680998,2.70E-11,,
,8.682998,2.72E-11,,
,8.684998,2.69E-11,,
,8.686998,2.66E-11,,
,8.688998,2.64E-11,,
,8.690998,2.65E-11,,
,8.692998,2.67E-11,,
,8.694998,2.72E-11,,
,8.696998,2.77E-11,,
,8.698998,2.79E-11,,
,8.700998,2.76E-11,,
,8.702998,2.76E-11,,
,8.704998,2.75E-11,,
,8.706998,2.78E-11,,
,8.708998,2.80E-11,,
,8.710998,2.86E-11,,
,8.712998,2.92E-11,,
,8.714998,2.92E-11,,
,8.716998,2.91E-11,,
,8.718998,2.87E-11,,
,8.720998,2.86E-11,,
,8.722998,2.83E-11,,
,8.724998,2.85E-11,,
,8.726998,2.90E-11,,
,8.728998,2.95E-11,,
,8.730998,2.96E-11,,
,8.732998,2.95E-11,,
,8.734998,2.92E-11,,
,8.736998,2.89E-11,,
,8.738998,2.87E-11,,
,8.740998,2.89E-11,,
,8.742998,2.92E-11,,
,8.744998,2.94E-11,,
,8.746998,2.97E-11,,
,8.748998,2.97E-11,,
,8.750998,2.96E-11,,
,8.752998,2.93E-11,,
,8.754998,2.91E-11,,
,8.756998,2.91E-11,,
,8.758998,2.91E-11,,
,8.760998,2.94E-11,,
,8.762998,2.96E-11,,
,8.764998,2.97E-11,,
,8.766998,2.94E-11,,
,8.768998,2.90E-11,,
,8.770998,2.87E-11,,
,8.772998,2.86E-11,,
,8.774998,2.91E-11,,
,8.776998,2.95E-11,,
,8.778998,3.01E-11,,
,8.780998,3.00E-11,,
,8.782998,2.99E-11,,
,8.784998,2.93E-11,,
,8.786998,2.90E-11,,
,8.788998,2.86E-11,,
,8.790998,2.89E-11,,
,8.792998,2.92E-11,,
,8.794998,2.97E-11,,
,8.796998,3.04E-11,,
,8.798998,3.07E-11,,
,8.800998,3.07E-11,,
,8.802998,3.01E-11,,
,8.804998,2.98E-11,,
,8.806998,2.97E-11,,
,8.808998,3.01E-11,,
,8.810998,3.09E-11,,
,8.812998,3.14E-11,,
,8.814998,3.18E-11,,
,8.816998,3.13E-11,,
,8.818998,3.10E-11,,
,8.820998,3.04E-11,,
,8.822998,3.02E-11,,
,8.824998,3.02E-11,,
,8.826998,3.06E-11,,
,8.828998,3.09E-11,,
,8.830998,3.10E-11,,
,8.832998,3.06E-11,,
,8.834998,2.99E-11,,
,8.836998,2.91E-11,,
,8.838998,2.87E-11,,
,8.840998,2.89E-11,,
,8.842998,2.93E-11,,
,8.844998,2.98E-11,,
,8.846998,3.00E-11,,
,8.848998,2.98E-11,,
,8.850998,2.94E-11,,
,8.852998,2.85E-11,,
,8.854998,2.79E-11,,
,8.856998,2.76E-11,,
,8.858998,2.77E-11,,
,8.860998,2.81E-11,,
,8.862998,2.82E-11,,
,8.864998,2.80E-11,,
,8.866998,2.74E-11,,
,8.868998,2.65E-11,,
,8.870998,2.56E-11,,
,8.872998,2.50E-11,,
,8.874998,2.52E-11,,
,8.876998,2.58E-11,,
,8.878998,2.66E-11,,
,8.880998,2.65E-11,,
,8.882998,2.62E-11,,
,8.884998,2.53E-11,,
,8.886998,2.45E-11,,
,8.888998,2.36E-11,,
,8.890998,2.33E-11,,
,8.892998,2.33E-11,,
,8.894998,2.34E-11,,
,8.896998,2.34E-11,,
,8.898998,2.32E-11,,
,8.900998,2.24E-11,,
,8.902998,2.13E-11,,
,8.904998,2.04E-11,,
,8.906998,1.99E-11,,
,8.908998,2.02E-11,,
,8.910998,2.06E-11,,
,8.912998,2.09E-11,,
,8.914998,2.08E-11,,
,8.916998,2.01E-11,,
,8.918998,1.92E-11,,
,8.920998,1.82E-11,,
,8.922998,1.77E-11,,
,8.924998,1.74E-11,,
,8.926998,1.73E-11,,
,8.928998,1.76E-11,,
,8.930998,1.77E-11,,
,8.932998,1.73E-11,,
,8.934998,1.64E-11,,
,8.936998,1.53E-11,,
,8.938998,1.48E-11,,
,8.940998,1.46E-11,,
,8.942998,1.49E-11,,
,8.944998,1.56E-11,,
,8.946998,1.59E-11,,
,8.948998,1.58E-11,,
,8.950998,1.50E-11,,
,8.952998,1.45E-11,,
,8.954998,1.36E-11,,
,8.956998,1.30E-11,,
,8.958998,1.28E-11,,
,8.960998,1.31E-11,,
,8.962998,1.33E-11,,
,8.964998,1.30E-11,,
,8.966998,1.26E-11,,
,8.968998,1.22E-11,,
,8.970998,1.18E-11,,
,8.972998,1.14E-11,,
,8.974998,1.14E-11,,
,8.976998,1.18E-11,,
,8.978998,1.22E-11,,
,8.980998,1.24E-11,,
,8.982998,1.22E-11,,
,8.984998,1.14E-11,,
,8.986998,1.04E-11,,
,8.988998,9.64E-12,,
,8.990998,9.53E-12,,
,8.992998,9.64E-12,,
,8.994998,9.85E-12,,
,8.996998,9.96E-12,,
,8.998998,9.64E-12,,
,9.000998,8.89E-12,,
,9.002998,8.03E-12,,
,9.004998,7.27E-12,,
,9.006998,6.85E-12,,
,9.008998,6.74E-12,,
,9.010998,7.06E-12,,
,9.012998,7.49E-12,,
,9.014998,7.81E-12,,
,9.016998,7.38E-12,,
,9.018998,6.42E-12,,
,9.020998,5.13E-12,,
,9.022998,4.27E-12,,
,9.024998,4.16E-12,,
,9.026998,4.48E-12,,
,9.028998,4.91E-12,,
,9.030998,4.81E-12,,
,9.032998,4.38E-12,,
,9.034998,3.41E-12,,
,9.036998,2.66E-12,,
,9.038998,2.34E-12,,
,9.040998,2.44E-12,,
,9.042998,2.77E-12,,
,9.044998,3.20E-12,,
,9.046998,3.62E-12,,
,9.048998,3.62E-12,,
,9.050998,3.09E-12,,
,9.052998,2.55E-12,,
,9.054998,2.01E-12,,
,9.056998,1.91E-12,,
,9.058998,2.23E-12,,
,9.060998,2.87E-12,,
,9.062998,3.41E-12,,
,9.064998,3.41E-12,,
,9.066998,2.77E-12,,
,9.068998,2.12E-12,,
,9.070998,1.48E-12,,
,9.072998,1.48E-12,,
,9.074998,1.80E-12,,
,9.076998,2.44E-12,,
,9.078998,3.30E-12,,
,9.080998,3.73E-12,,
,9.082998,3.73E-12,,
,9.084998,3.09E-12,,
,9.086998,2.23E-12,,
,9.088998,1.80E-12,,
,9.090998,1.69E-12,,
,9.092998,2.01E-12,,
,9.094998,2.23E-12,,
,9.096998,2.66E-12,,
,9.098998,2.66E-12,,
,9.100998,2.34E-12,,
,9.102998,1.69E-12,,
,9.104998,1.16E-12,,
,9.106998,1.16E-12,,
,9.108998,1.59E-12,,
,9.110998,2.55E-12,,
,9.112998,3.20E-12,,
,9.114998,3.41E-12,,
,9.116998,2.87E-12,,
,9.118998,2.23E-12,,
,9.120998,1.59E-12,,
,9.122998,1.16E-12,,
,9.124998,1.26E-12,,
,9.126998,1.59E-12,,
,9.128998,2.23E-12,,
,9.130998,2.66E-12,,
,9.132998,2.77E-12,,
,9.134998,2.55E-12,,
,9.136998,2.23E-12,,
,9.138998,2.01E-12,,
,9.140998,2.34E-12,,
,9.142998,2.87E-12,,
,9.144998,3.84E-12,,
,9.146998,4.27E-12,,
,9.148998,4.38E-12,,
,9.150998,4.05E-12,,
,9.152998,3.52E-12,,
,9.154998,2.98E-12,,
,9.156998,2.77E-12,,
,9.158998,3.41E-12,,
,9.160998,4.16E-12,,
,9.162998,4.70E-12,,
,9.164998,4.70E-12,,
,9.166998,4.48E-12,,
,9.168998,4.16E-12,,
,9.170998,3.62E-12,,
,9.172998,3.62E-12,,
,9.174998,3.84E-12,,
,9.176998,4.70E-12,,
,9.178998,5.45E-12,,
,9.180998,6.42E-12,,
,9.182998,6.52E-12,,
,9.184998,6.31E-12,,
,9.186998,5.77E-12,,
,9.188998,5.66E-12,,
,9.190998,5.99E-12,,
,9.192998,6.42E-12,,
,9.194998,7.06E-12,,
,9.196998,7.38E-12,,
,9.198998,7.38E-12,,
,9.200998,7.06E-12,,
,9.202998,6.63E-12,,
,9.204998,6.63E-12,,
,9.206998,6.85E-12,,
,9.208998,7.38E-12,,
,9.210998,8.13E-12,,
,9.212998,8.99E-12,,
,9.214998,9.74E-12,,
,9.216998,9.96E-12,,
,9.218998,9.53E-12,,
,9.220998,9.10E-12,,
,9.222998,8.89E-12,,
,9.224998,9.31E-12,,
,9.226998,9.74E-12,,
,9.228998,1.02E-11,,
,9.230998,1.03E-11,,
,9.232998,1.01E-11,,
,9.234998,9.74E-12,,
,9.236998,9.31E-12,,
,9.238998,9.42E-12,,
,9.240998,9.53E-12,,
,9.242998,1.01E-11,,
,9.244998,1.05E-11,,
,9.246998,1.10E-11,,
,9.248998,1.10E-11,,
,9.250998,1.04E-11,,
,9.252998,9.64E-12,,
,9.254998,8.67E-12,,
,9.256998,8.46E-12,,
,9.258998,8.35E-12,,
,9.260998,9.10E-12,,
,9.262998,9.42E-12,,
,9.264998,9.31E-12,,
,9.266998,8.46E-12,,
,9.268998,7.49E-12,,
,9.270998,6.63E-12,,
,9.272998,6.20E-12,,
,9.274998,6.20E-12,,
,9.276998,6.52E-12,,
,9.278998,7.17E-12,,
,9.280998,7.38E-12,,
,9.282998,7.27E-12,,
,9.284998,6.63E-12,,
,9.286998,6.09E-12,,
,9.288998,5.66E-12,,
,9.290998,5.45E-12,,
,9.292998,5.56E-12,,
,9.294998,5.66E-12,,
,9.296998,5.88E-12,,
,9.298998,5.56E-12,,
,9.300998,5.24E-12,,
,9.302998,4.59E-12,,
,9.304998,3.95E-12,,
,9.306998,3.62E-12,,
,9.308998,3.95E-12,,
,9.310998,4.70E-12,,
,9.312998,5.34E-12,,
,9.314998,5.45E-12,,
,9.316998,5.13E-12,,
,9.318998,4.38E-12,,
,9.320998,3.62E-12,,
,9.322998,3.41E-12,,
,9.324998,3.52E-12,,
,9.326998,4.05E-12,,
,9.328998,4.48E-12,,
,9.330998,4.91E-12,,
,9.332998,4.59E-12,,
,9.334998,4.05E-12,,
,9.336998,3.52E-12,,
,9.338998,3.20E-12,,
,9.340998,3.20E-12,,
,9.342998,3.52E-12,,
,9.344998,4.27E-12,,
,9.346998,4.81E-12,,
,9.348998,5.02E-12,,
,9.350998,4.59E-12,,
,9.352998,3.95E-12,,
,9.354998,3.52E-12,,
,9.356998,3.52E-12,,
,9.358998,3.95E-12,,
,9.360998,4.27E-12,,
,9.362998,4.48E-12,,
,9.364998,4.70E-12,,
,9.366998,4.59E-12,,
,9.368998,4.27E-12,,
,9.370998,3.73E-12,,
,9.372998,3.62E-12,,
,9.374998,4.27E-12,,
,9.376998,5.13E-12,,
,9.378998,6.09E-12,,
,9.380998,6.74E-12,,
,9.382998,6.74E-12,,
,9.384998,6.20E-12,,
,9.386998,5.45E-12,,
,9.388998,5.02E-12,,
,9.390998,5.02E-12,,
,9.392998,5.45E-12,,
,9.394998,5.99E-12,,
,9.396998,6.42E-12,,
,9.398998,6.52E-12,,
,9.400998,6.20E-12,,
,9.402998,5.56E-12,,
,9.404998,5.02E-12,,
,9.406998,5.02E-12,,
,9.408998,5.56E-12,,
,9.410998,6.09E-12,,
,9.412998,6.63E-12,,
,9.414998,6.52E-12,,
,9.416998,6.09E-12,,
,9.418998,5.34E-12,,
,9.420998,4.70E-12,,
,9.422998,4.48E-12,,
,9.424998,4.48E-12,,
,9.426998,4.91E-12,,
,9.428998,5.02E-12,,
,9.430998,5.13E-12,,
,9.432998,4.70E-12,,
,9.434998,4.16E-12,,
,9.436998,3.52E-12,,
,9.438998,3.41E-12,,
,9.440998,3.41E-12,,
,9.442998,4.05E-12,,
,9.444998,4.91E-12,,
,9.446998,5.99E-12,,
,9.448998,6.20E-12,,
,9.450998,5.99E-12,,
,9.452998,5.34E-12,,
,9.454998,5.13E-12,,
,9.456998,5.24E-12,,
,9.458998,5.99E-12,,
,9.460998,6.95E-12,,
,9.462998,7.92E-12,,
,9.464998,8.46E-12,,
,9.466998,8.78E-12,,
,9.468998,8.67E-12,,
,9.470998,8.67E-12,,
,9.472998,8.99E-12,,
,9.474998,9.64E-12,,
,9.476998,1.10E-11,,
,9.478998,1.22E-11,,
,9.480998,1.33E-11,,
,9.482998,1.40E-11,,
,9.484998,1.44E-11,,
,9.486998,1.47E-11,,
,9.488998,1.49E-11,,
,9.490998,1.54E-11,,
,9.492998,1.63E-11,,
,9.494998,1.72E-11,,
,9.496998,1.80E-11,,
,9.498998,1.87E-11,,
,9.500998,1.89E-11,,
,9.502998,1.89E-11,,
,9.504998,1.89E-11,,
,9.506998,1.94E-11,,
,9.508998,2.05E-11,,
,9.510998,2.19E-11,,
,9.512998,2.33E-11,,
,9.514998,2.41E-11,,
,9.516998,2.45E-11,,
,9.518998,2.42E-11,,
,9.520998,2.40E-11,,
,9.522998,2.41E-11,,
,9.524998,2.43E-11,,
,9.526998,2.51E-11,,
,9.528998,2.58E-11,,
,9.530998,2.65E-11,,
,9.532998,2.68E-11,,
,9.534998,2.65E-11,,
,9.536998,2.63E-11,,
,9.538998,2.61E-11,,
,9.540998,2.64E-11,,
,9.542998,2.69E-11,,
,9.544998,2.76E-11,,
,9.546998,2.82E-11,,
,9.548998,2.85E-11,,
,9.550998,2.84E-11,,
,9.552998,2.79E-11,,
,9.554998,2.75E-11,,
,9.556998,2.70E-11,,
,9.558998,2.69E-11,,
,9.560998,2.70E-11,,
,9.562998,2.74E-11,,
,9.564998,2.74E-11,,
,9.566998,2.68E-11,,
,9.568998,2.58E-11,,
,9.570998,2.49E-11,,
,9.572998,2.43E-11,,
,9.574998,2.43E-11,,
,9.576998,2.46E-11,,
,9.578998,2.48E-11,,
,9.580998,2.48E-11,,
,9.582998,2.45E-11,,
,9.584998,2.37E-11,,
,9.586998,2.28E-11,,
,9.588998,2.21E-11,,
,9.590998,2.16E-11,,
,9.592998,2.12E-11,,
,9.594998,2.12E-11,,
,9.596998,2.12E-11,,
,9.598998,2.08E-11,,
,9.600998,2.01E-11,,
,9.602998,1.90E-11,,
,9.604998,1.80E-11,,
,9.606998,1.74E-11,,
,9.608998,1.73E-11,,
,9.610998,1.77E-11,,
,9.612998,1.81E-11,,
,9.614998,1.82E-11,,
,9.616998,1.76E-11,,
,9.618998,1.67E-11,,
,9.620998,1.59E-11,,
,9.622998,1.53E-11,,
,9.624998,1.48E-11,,
,9.626998,1.48E-11,,
,9.628998,1.47E-11,,
,9.630998,1.47E-11,,
,9.632998,1.40E-11,,
,9.634998,1.32E-11,,
,9.636998,1.21E-11,,
,9.638998,1.12E-11,,
,9.640998,1.10E-11,,
,9.642998,1.12E-11,,
,9.644998,1.16E-11,,
,9.646998,1.17E-11,,
,9.648998,1.17E-11,,
,9.650998,1.11E-11,,
,9.652998,1.04E-11,,
,9.654998,9.21E-12,,
,9.656998,8.56E-12,,
,9.658998,8.35E-12,,
,9.660998,8.35E-12,,
,9.662998,8.35E-12,,
,9.664998,8.13E-12,,
,9.666998,7.60E-12,,
,9.668998,6.63E-12,,
,9.670998,5.66E-12,,
,9.672998,5.13E-12,,
,9.674998,5.02E-12,,
,9.676998,5.34E-12,,
,9.678998,5.45E-12,,
,9.680998,5.56E-12,,
,9.682998,5.24E-12,,
,9.684998,4.48E-12,,
,9.686998,3.52E-12,,
,9.688998,2.55E-12,,
,9.690998,2.23E-12,,
,9.692998,2.44E-12,,
,9.694998,2.98E-12,,
,9.696998,3.41E-12,,
,9.698998,3.30E-12,,
,9.700998,2.66E-12,,
,9.702998,2.12E-12,,
,9.704998,1.69E-12,,
,9.706998,1.91E-12,,
,9.708998,2.23E-12,,
,9.710998,2.98E-12,,
,9.712998,3.73E-12,,
,9.714998,4.38E-12,,
,9.716998,4.48E-12,,
,9.718998,4.16E-12,,
,9.720998,3.84E-12,,
,9.722998,4.05E-12,,
,9.724998,4.70E-12,,
,9.726998,5.45E-12,,
,9.728998,6.20E-12,,
,9.730998,6.74E-12,,
,9.732998,7.06E-12,,
,9.734998,6.95E-12,,
,9.736998,6.74E-12,,
,9.738998,6.63E-12,,
,9.740998,6.85E-12,,
,9.742998,7.27E-12,,
,9.744998,8.35E-12,,
,9.746998,9.21E-12,,
,9.748998,9.85E-12,,
,9.750998,9.53E-12,,
,9.752998,9.31E-12,,
,9.754998,8.89E-12,,
,9.756998,9.21E-12,,
,9.758998,9.31E-12,,
,9.760998,9.85E-12,,
,9.762998,1.04E-11,,
,9.764998,1.09E-11,,
,9.766998,1.08E-11,,
,9.768998,1.04E-11,,
,9.770998,1.02E-11,,
,9.772998,1.03E-11,,
,9.774998,1.06E-11,,
,9.776998,1.10E-11,,
,9.778998,1.21E-11,,
,9.780998,1.29E-11,,
,9.782998,1.34E-11,,
,9.784998,1.31E-11,,
,9.786998,1.28E-11,,
,9.788998,1.25E-11,,
,9.790998,1.28E-11,,
,9.792998,1.33E-11,,
,9.794998,1.39E-11,,
,9.796998,1.46E-11,,
,9.798998,1.51E-11,,
,9.800998,1.53E-11,,
,9.802998,1.53E-11,,
,9.804998,1.52E-11,,
,9.806998,1.55E-11,,
,9.808998,1.65E-11,,
,9.810998,1.81E-11,,
,9.812998,1.95E-11,,
,9.814998,2.06E-11,,
,9.816998,2.09E-11,,
,9.818998,2.11E-11,,
,9.820998,2.12E-11,,
,9.822998,2.19E-11,,
,9.824998,2.31E-11,,
,9.826998,2.49E-11,,
,9.828998,2.66E-11,,
,9.830998,2.82E-11,,
,9.832998,2.95E-11,,
,9.834998,3.08E-11,,
,9.836998,3.18E-11,,
,9.838998,3.30E-11,,
,9.840998,3.48E-11,,
,9.842998,3.71E-11,,
,9.844998,3.98E-11,,
,9.846998,4.22E-11,,
,9.848998,4.46E-11,,
,9.850998,4.64E-11,,
,9.852998,4.81E-11,,
,9.854998,4.98E-11,,
,9.856998,5.19E-11,,
,9.858998,5.46E-11,,
,9.860998,5.76E-11,,
,9.862998,6.08E-11,,
,9.864998,6.37E-11,,
,9.866998,6.60E-11,,
,9.868998,6.81E-11,,
,9.870998,7.02E-11,,
,9.872998,7.27E-11,,
,9.874998,7.54E-11,,
,9.876998,7.88E-11,,
,9.878998,8.22E-11,,
,9.880998,8.56E-11,,
,9.882998,8.84E-11,,
,9.884998,9.11E-11,,
,9.886998,9.33E-11,,
,9.888998,9.60E-11,,
,9.890998,9.88E-11,,
,9.892998,1.02E-10,,
,9.894998,1.06E-10,,
,9.896998,1.09E-10,,
,9.898998,1.11E-10,,
,9.900998,1.14E-10,,
,9.902998,1.16E-10,,
,9.904998,1.18E-10,,
,9.906998,1.21E-10,,
,9.908998,1.24E-10,,
,9.910998,1.28E-10,,
,9.912998,1.32E-10,,
,9.914998,1.35E-10,,
,9.916998,1.38E-10,,
,9.918998,1.40E-10,,
,9.920998,1.42E-10,,
,9.922998,1.44E-10,,
,9.924998,1.46E-10,,
,9.926998,1.49E-10,,
,9.928998,1.51E-10,,
,9.930998,1.53E-10,,
,9.932998,1.55E-10,,
,9.934998,1.56E-10,,
,9.936998,1.58E-10,,
,9.938998,1.59E-10,,
,9.940998,1.60E-10,,
,9.942998,1.62E-10,,
,9.944998,1.63E-10,,
,9.946998,1.64E-10,,
,9.948998,1.65E-10,,
,9.950998,1.65E-10,,
,9.952998,1.64E-10,,
,9.954998,1.63E-10,,
,9.956998,1.63E-10,,
,9.958998,1.62E-10,,
,9.960998,1.62E-10,,
,9.962998,1.61E-10,,
,9.964998,1.59E-10,,
,9.966998,1.57E-10,,
,9.968998,1.54E-10,,
,9.970998,1.51E-10,,
,9.972998,1.49E-10,,
,9.974998,1.46E-10,,
,9.976998,1.44E-10,,
,9.978998,1.41E-10,,
,9.980998,1.38E-10,,
,9.982998,1.34E-10,,
,9.984998,1.30E-10,,
,9.986998,1.25E-10,,
,9.988998,1.20E-10,,
,9.990998,1.15E-10,,
,9.992998,1.10E-10,,
,9.994998,1.06E-10,,
,9.996998,1.01E-10,,
,9.998998,9.61E-11,,
,10.000998,9.07E-11,,
,10.002998,8.47E-11,,
,10.004998,7.89E-11,,
,10.006998,7.34E-11,,
,10.008998,6.85E-11,,
,10.010998,6.35E-11,,
,10.012998,5.88E-11,,
,10.014998,5.38E-11,,
,10.016998,4.86E-11,,
,10.018998,4.27E-11,,
,10.020998,3.71E-11,,
,10.022998,3.18E-11,,
,10.024998,2.71E-11,,
,10.026998,2.29E-11,,
,10.028998,1.90E-11,,
,10.030998,1.52E-11,,
,10.032998,1.10E-11,,
,10.034998,6.74E-12,,
,10.036998,2.12E-12,,
,10.038998,-1.85E-12,,
,10.040998,-5.50E-12,,
,10.042998,-8.40E-12,,
,10.044998,-1.10E-11,,
,10.046998,-1.34E-11,,
,10.048998,-1.59E-11,,
,10.050998,-1.91E-11,,
,10.052998,-2.22E-11,,
,10.054998,-2.51E-11,,
,10.056998,-2.75E-11,,
,10.058998,-2.93E-11,,
,10.060998,-3.12E-11,,
,10.062998,-3.26E-11,,
,10.064998,-3.42E-11,,
,10.066998,-3.59E-11,,
,10.068998,-3.78E-11,,
,10.070998,-3.93E-11,,
,10.072998,-4.04E-11,,
,10.074998,-4.10E-11,,
,10.076998,-4.14E-11,,
,10.078998,-4.15E-11,,
,10.080998,-4.16E-11,,
,10.082998,-4.18E-11,,
,10.084998,-4.23E-11,,
,10.086998,-4.26E-11,,
,10.088998,-4.32E-11,,
,10.090998,-4.31E-11,,
,10.092998,-4.25E-11,,
,10.094998,-4.16E-11,,
,10.096998,-4.09E-11,,
,10.098998,-4.09E-11,,
,10.100998,-4.13E-11,,
,10.102998,-4.15E-11,,
,10.104998,-4.15E-11,,
,10.106998,-4.10E-11,,
,10.108998,-4.00E-11,,
,10.110998,-3.86E-11,,
,10.112998,-3.72E-11,,
,10.114998,-3.61E-11,,
,10.116998,-3.55E-11,,
,10.118998,-3.51E-11,,
,10.120998,-3.49E-11,,
,10.122998,-3.45E-11,,
,10.124998,-3.36E-11,,
,10.126998,-3.29E-11,,
,10.128998,-3.19E-11,,
,10.130998,-3.12E-11,,
,10.132998,-3.05E-11,,
,10.134998,-3.01E-11,,
,10.136998,-2.99E-11,,
,10.138998,-2.95E-11,,
,10.140998,-2.91E-11,,
,10.142998,-2.83E-11,,
,10.144998,-2.68E-11,,
,10.146998,-2.55E-11,,
,10.148998,-2.45E-11,,
,10.150998,-2.44E-11,,
,10.152998,-2.45E-11,,
,10.154998,-2.47E-11,,
,10.156998,-2.48E-11,,
,10.158998,-2.44E-11,,
,10.160998,-2.36E-11,,
,10.162998,-2.30E-11,,
,10.164998,-2.26E-11,,
,10.166998,-2.29E-11,,
,10.168998,-2.34E-11,,
,10.170998,-2.41E-11,,
,10.172998,-2.44E-11,,
,10.174998,-2.44E-11,,
,10.176998,-2.42E-11,,
,10.178998,-2.38E-11,,
,10.180998,-2.35E-11,,
,10.182998,-2.39E-11,,
,10.184998,-2.47E-11,,
,10.186998,-2.58E-11,,
,10.188998,-2.66E-11,,
,10.190998,-2.73E-11,,
,10.192998,-2.76E-11,,
,10.194998,-2.78E-11,,
,10.196998,-2.82E-11,,
,10.198998,-2.89E-11,,
,10.200998,-3.01E-11,,
,10.202998,-3.18E-11,,
,10.204998,-3.33E-11,,
,10.206998,-3.46E-11,,
,10.208998,-3.49E-11,,
,10.210998,-3.53E-11,,
,10.212998,-3.59E-11,,
,10.214998,-3.66E-11,,
,10.216998,-3.76E-11,,
,10.218998,-3.90E-11,,
,10.220998,-4.09E-11,,
,10.222998,-4.25E-11,,
,10.224998,-4.35E-11,,
,10.226998,-4.41E-11,,
,10.228998,-4.47E-11,,
,10.230998,-4.55E-11,,
,10.232998,-4.67E-11,,
,10.234998,-4.83E-11,,
,10.236998,-5.02E-11,,
,10.238998,-5.17E-11,,
,10.240998,-5.26E-11,,
,10.242998,-5.31E-11,,
,10.244998,-5.34E-11,,
,10.246998,-5.40E-11,,
,10.248998,-5.48E-11,,
,10.250998,-5.60E-11,,
,10.252998,-5.74E-11,,
,10.254998,-5.87E-11,,
,10.256998,-5.97E-11,,
,10.258998,-6.06E-11,,
,10.260998,-6.10E-11,,
,10.262998,-6.13E-11,,
,10.264998,-6.16E-11,,
,10.266998,-6.26E-11,,
,10.268998,-6.40E-11,,
,10.270998,-6.53E-11,,
,10.272998,-6.62E-11,,
,10.274998,-6.66E-11,,
,10.276998,-6.65E-11,,
,10.278998,-6.64E-11,,
,10.280998,-6.64E-11,,
,10.282998,-6.69E-11,,
,10.284998,-6.76E-11,,
,10.286998,-6.85E-11,,
,10.288998,-6.92E-11,,
,10.290998,-6.98E-11,,
,10.292998,-6.99E-11,,
,10.294998,-6.99E-11,,
,10.296998,-6.99E-11,,
,10.298998,-7.02E-11,,
,10.300998,-7.10E-11,,
,10.302998,-7.20E-11,,
,10.304998,-7.26E-11,,
,10.306998,-7.28E-11,,
,10.308998,-7.25E-11,,
,10.310998,-7.20E-11,,
,10.312998,-7.15E-11,,
,10.314998,-7.14E-11,,
,10.316998,-7.17E-11,,
,10.318998,-7.21E-11,,
,10.320998,-7.25E-11,,
,10.322998,-7.27E-11,,
,10.324998,-7.29E-11,,
,10.326998,-7.26E-11,,
,10.328998,-7.22E-11,,
,10.330998,-7.16E-11,,
,10.332998,-7.14E-11,,
,10.334998,-7.14E-11,,
,10.336998,-7.16E-11,,
,10.338998,-7.17E-11,,
,10.340998,-7.14E-11,,
,10.342998,-7.06E-11,,
,10.344998,-6.93E-11,,
,10.346998,-6.81E-11,,
,10.348998,-6.73E-11,,
,10.350998,-6.70E-11,,
,10.352998,-6.68E-11,,
,10.354998,-6.66E-11,,
,10.356998,-6.62E-11,,
,10.358998,-6.51E-11,,
,10.360998,-6.39E-11,,
,10.362998,-6.26E-11,,
,10.364998,-6.18E-11,,
,10.366998,-6.11E-11,,
,10.368998,-6.09E-11,,
,10.370998,-6.09E-11,,
,10.372998,-6.03E-11,,
,10.374998,-5.93E-11,,
,10.376998,-5.78E-11,,
,10.378998,-5.65E-11,,
,10.380998,-5.52E-11,,
,10.382998,-5.46E-11,,
,10.384998,-5.43E-11,,
,10.386998,-5.42E-11,,
,10.388998,-5.40E-11,,
,10.390998,-5.31E-11,,
,10.392998,-5.22E-11,,
,10.394998,-5.10E-11,,
,10.396998,-5.02E-11,,
,10.398998,-4.94E-11,,
,10.400998,-4.90E-11,,
,10.402998,-4.90E-11,,
,10.404998,-4.88E-11,,
,10.406998,-4.84E-11,,
,10.408998,-4.75E-11,,
,10.410998,-4.62E-11,,
,10.412998,-4.48E-11,,
,10.414998,-4.36E-11,,
,10.416998,-4.31E-11,,
,10.418998,-4.26E-11,,
,10.420998,-4.24E-11,,
,10.422998,-4.21E-11,,
,10.424998,-4.16E-11,,
,10.426998,-4.08E-11,,
,10.428998,-3.95E-11,,
,10.430998,-3.86E-11,,
,10.432998,-3.80E-11,,
,10.434998,-3.80E-11,,
,10.436998,-3.81E-11,,
,10.438998,-3.79E-11,,
,10.440998,-3.72E-11,,
,10.442998,-3.61E-11,,
,10.444998,-3.48E-11,,
,10.446998,-3.38E-11,,
,10.448998,-3.32E-11,,
,10.450998,-3.30E-11,,
,10.452998,-3.29E-11,,
,10.454998,-3.29E-11,,
,10.456998,-3.27E-11,,
,10.458998,-3.20E-11,,
,10.460998,-3.11E-11,,
,10.462998,-2.99E-11,,
,10.464998,-2.93E-11,,
,10.466998,-2.90E-11,,
,10.468998,-2.91E-11,,
,10.470998,-2.92E-11,,
,10.472998,-2.92E-11,,
,10.474998,-2.88E-11,,
,10.476998,-2.79E-11,,
,10.478998,-2.66E-11,,
,10.480998,-2.58E-11,,
,10.482998,-2.51E-11,,
,10.484998,-2.50E-11,,
,10.486998,-2.51E-11,,
,10.488998,-2.51E-11,,
,10.490998,-2.49E-11,,
,10.492998,-2.39E-11,,
,10.494998,-2.26E-11,,
,10.496998,-2.13E-11,,
,10.498998,-2.07E-11,,
,10.500998,-2.05E-11,,
,10.502998,-2.05E-11,,
,10.504998,-2.04E-11,,
,10.506998,-2.01E-11,,
,10.508998,-1.92E-11,,
,10.510998,-1.81E-11,,
,10.512998,-1.66E-11,,
,10.514998,-1.58E-11,,
,10.516998,-1.52E-11,,
,10.518998,-1.53E-11,,
,10.520998,-1.51E-11,,
,10.522998,-1.47E-11,,
,10.524998,-1.41E-11,,
,10.526998,-1.32E-11,,
,10.528998,-1.23E-11,,
,10.530998,-1.12E-11,,
,10.532998,-1.08E-11,,
,10.534998,-1.10E-11,,
,10.536998,-1.15E-11,,
,10.538998,-1.18E-11,,
,10.540998,-1.17E-11,,
,10.542998,-1.11E-11,,
,10.544998,-1.03E-11,,
,10.546998,-9.47E-12,,
,10.548998,-9.26E-12,,
,10.550998,-9.47E-12,,
,10.552998,-1.00E-11,,
,10.554998,-1.08E-11,,
,10.556998,-1.08E-11,,
,10.558998,-1.07E-11,,
,10.560998,-9.69E-12,,
,10.562998,-9.15E-12,,
,10.564998,-8.94E-12,,
,10.566998,-9.37E-12,,
,10.568998,-1.00E-11,,
,10.570998,-1.08E-11,,
,10.572998,-1.13E-11,,
,10.574998,-1.13E-11,,
,10.576998,-1.08E-11,,
,10.578998,-1.00E-11,,
,10.580998,-9.58E-12,,
,10.582998,-9.47E-12,,
,10.584998,-9.90E-12,,
,10.586998,-1.02E-11,,
,10.588998,-1.04E-11,,
,10.590998,-1.04E-11,,
,10.592998,-1.03E-11,,
,10.594998,-1.00E-11,,
,10.596998,-9.69E-12,,
,10.598998,-9.47E-12,,
,10.600998,-9.58E-12,,
,10.602998,-9.90E-12,,
,10.604998,-1.03E-11,,
,10.606998,-1.04E-11,,
,10.608998,-1.00E-11,,
,10.610998,-9.15E-12,,
,10.612998,-8.40E-12,,
,10.614998,-7.75E-12,,
,10.616998,-7.65E-12,,
,10.618998,-7.75E-12,,
,10.620998,-8.08E-12,,
,10.622998,-8.18E-12,,
,10.624998,-8.08E-12,,
,10.626998,-7.75E-12,,
,10.628998,-7.22E-12,,
,10.630998,-6.90E-12,,
,10.632998,-6.68E-12,,
,10.634998,-7.22E-12,,
,10.636998,-7.65E-12,,
,10.638998,-8.18E-12,,
,10.640998,-8.18E-12,,
,10.642998,-7.65E-12,,
,10.644998,-6.68E-12,,
,10.646998,-5.39E-12,,
,10.648998,-4.86E-12,,
,10.650998,-4.75E-12,,
,10.652998,-5.29E-12,,
,10.654998,-5.50E-12,,
,10.656998,-5.61E-12,,
,10.658998,-5.39E-12,,
,10.660998,-4.86E-12,,
,10.662998,-4.00E-12,,
,10.664998,-3.14E-12,,
,10.666998,-2.82E-12,,
,10.668998,-3.35E-12,,
,10.670998,-3.68E-12,,
,10.672998,-3.78E-12,,
,10.674998,-3.03E-12,,
,10.676998,-2.07E-12,,
,10.678998,-8.84E-13,,
,10.680998,8.20E-14,,
,10.682998,6.19E-13,,
,10.684998,4.04E-13,,
,10.686998,-2.53E-14,,
,10.688998,-2.40E-13,,
,10.690998,1.89E-13,,
,10.692998,9.41E-13,,
,10.694998,1.48E-12,,
,10.696998,2.01E-12,,
,10.698998,2.01E-12,,
,10.700998,1.69E-12,,
,10.702998,1.05E-12,,
,10.704998,4.04E-13,,
,10.706998,4.04E-13,,
,10.708998,7.26E-13,,
,10.710998,1.69E-12,,
,10.712998,2.55E-12,,
,10.714998,3.30E-12,,
,10.716998,3.41E-12,,
,10.718998,3.30E-12,,
,10.720998,2.98E-12,,
,10.722998,3.09E-12,,
,10.724998,3.30E-12,,
,10.726998,3.95E-12,,
,10.728998,4.59E-12,,
,10.730998,5.13E-12,,
,10.732998,5.34E-12,,
,10.734998,5.13E-12,,
,10.736998,4.70E-12,,
,10.738998,4.38E-12,,
,10.740998,4.27E-12,,
,10.742998,4.81E-12,,
,10.744998,5.45E-12,,
,10.746998,6.42E-12,,
,10.748998,6.85E-12,,
,10.750998,6.95E-12,,
,10.752998,6.31E-12,,
,10.754998,5.66E-12,,
,10.756998,5.45E-12,,
,10.758998,5.77E-12,,
,10.760998,6.42E-12,,
,10.762998,6.95E-12,,
,10.764998,7.06E-12,,
,10.766998,7.27E-12,,
,10.768998,6.95E-12,,
,10.770998,7.17E-12,,
,10.772998,7.38E-12,,
,10.774998,8.24E-12,,
,10.776998,9.42E-12,,
,10.778998,1.08E-11,,
,10.780998,1.21E-11,,
,10.782998,1.30E-11,,
,10.784998,1.33E-11,,
,10.786998,1.33E-11,,
,10.788998,1.34E-11,,
,10.790998,1.35E-11,,
,10.792998,1.39E-11,,
,10.794998,1.45E-11,,
,10.796998,1.52E-11,,
,10.798998,1.56E-11,,
,10.800998,1.54E-11,,
,10.802998,1.48E-11,,
,10.804998,1.39E-11,,
,10.806998,1.34E-11,,
,10.808998,1.30E-11,,
,10.810998,1.33E-11,,
,10.812998,1.34E-11,,
,10.814998,1.36E-11,,
,10.816998,1.28E-11,,
,10.818998,1.20E-11,,
,10.820998,1.09E-11,,
,10.822998,1.04E-11,,
,10.824998,1.01E-11,,
,10.826998,1.04E-11,,
,10.828998,1.08E-11,,
,10.830998,1.11E-11,,
,10.832998,1.09E-11,,
,10.834998,1.03E-11,,
,10.836998,9.53E-12,,
,10.838998,8.99E-12,,
,10.840998,8.99E-12,,
,10.842998,9.21E-12,,
,10.844998,9.31E-12,,
,10.846998,9.21E-12,,
,10.848998,8.89E-12,,
,10.850998,8.35E-12,,
,10.852998,7.60E-12,,
,10.854998,6.74E-12,,
,10.856998,5.66E-12,,
,10.858998,5.02E-12,,
,10.860998,4.59E-12,,
,10.862998,4.70E-12,,
,10.864998,4.05E-12,,
,10.866998,3.20E-12,,
,10.868998,1.91E-12,,
,10.870998,7.26E-13,,
,10.872998,-4.55E-13,,
,10.874998,-1.21E-12,,
,10.876998,-1.31E-12,,
,10.878998,-1.21E-12,,
,10.880998,-1.21E-12,,
,10.882998,-1.64E-12,,
,10.884998,-2.49E-12,,
,10.886998,-3.46E-12,,
,10.888998,-4.32E-12,,
,10.890998,-4.64E-12,,
,10.892998,-4.64E-12,,
,10.894998,-4.21E-12,,
,10.896998,-4.00E-12,,
,10.898998,-3.89E-12,,
,10.900998,-4.43E-12,,
,10.902998,-5.29E-12,,
,10.904998,-6.25E-12,,
,10.906998,-6.36E-12,,
,10.908998,-6.04E-12,,
,10.910998,-5.18E-12,,
,10.912998,-4.53E-12,,
,10.914998,-3.68E-12,,
,10.916998,-3.46E-12,,
,10.918998,-3.46E-12,,
,10.920998,-3.68E-12,,
,10.922998,-3.57E-12,,
,10.924998,-3.03E-12,,
,10.926998,-2.17E-12,,
,10.928998,-1.31E-12,,
,10.930998,-4.55E-13,,
,10.932998,-1.33E-13,,
,10.934998,-2.53E-14,,
,10.936998,-4.55E-13,,
,10.938998,-6.69E-13,,
,10.940998,-3.47E-13,,
,10.942998,6.19E-13,,
,10.944998,1.91E-12,,
,10.946998,2.98E-12,,
,10.948998,3.30E-12,,
,10.950998,3.30E-12,,
,10.952998,2.98E-12,,
,10.954998,2.98E-12,,
,10.956998,2.98E-12,,
,10.958998,3.41E-12,,
,10.960998,4.16E-12,,
,10.962998,4.91E-12,,
,10.964998,5.56E-12,,
,10.966998,5.56E-12,,
,10.968998,5.56E-12,,
,10.970998,5.24E-12,,
,10.972998,5.13E-12,,
,10.974998,5.45E-12,,
,10.976998,6.20E-12,,
,10.978998,7.27E-12,,
,10.980998,7.92E-12,,
,10.982998,8.35E-12,,
,10.984998,8.35E-12,,
,10.986998,8.24E-12,,
,10.988998,8.24E-12,,
,10.990998,8.46E-12,,
,10.992998,9.42E-12,,
,10.994998,1.06E-11,,
,10.996998,1.20E-11,,
,10.998998,1.26E-11,,
,11.000998,1.26E-11,,
,11.002998,1.23E-11,,
,11.004998,1.22E-11,,
,11.006998,1.25E-11,,
,11.008998,1.36E-11,,
,11.010998,1.47E-11,,
,11.012998,1.59E-11,,
,11.014998,1.64E-11,,
,11.016998,1.72E-11,,
,11.018998,1.74E-11,,
,11.020998,1.76E-11,,
,11.022998,1.76E-11,,
,11.024998,1.82E-11,,
,11.026998,1.91E-11,,
,11.028998,2.03E-11,,
,11.030998,2.12E-11,,
,11.032998,2.18E-11,,
,11.034998,2.18E-11,,
,11.036998,2.14E-11,,
,11.038998,2.14E-11,,
,11.040998,2.20E-11,,
,11.042998,2.27E-11,,
,11.044998,2.42E-11,,
,11.046998,2.52E-11,,
,11.048998,2.64E-11,,
,11.050998,2.65E-11,,
,11.052998,2.64E-11,,
,11.054998,2.61E-11,,
,11.056998,2.60E-11,,
,11.058998,2.64E-11,,
,11.060998,2.71E-11,,
,11.062998,2.79E-11,,
,11.064998,2.84E-11,,
,11.066998,2.83E-11,,
,11.068998,2.81E-11,,
,11.070998,2.77E-11,,
,11.072998,2.76E-11,,
,11.074998,2.76E-11,,
,11.076998,2.81E-11,,
,11.078998,2.86E-11,,
,11.080998,2.90E-11,,
,11.082998,2.87E-11,,
,11.084998,2.81E-11,,
,11.086998,2.75E-11,,
,11.088998,2.66E-11,,
,11.090998,2.62E-11,,
,11.092998,2.60E-11,,
,11.094998,2.63E-11,,
,11.096998,2.65E-11,,
,11.098998,2.63E-11,,
,11.100998,2.55E-11,,
,11.102998,2.46E-11,,
,11.104998,2.37E-11,,
,11.106998,2.32E-11,,
,11.108998,2.29E-11,,
,11.110998,2.32E-11,,
,11.112998,2.34E-11,,
,11.114998,2.34E-11,,
,11.116998,2.28E-11,,
,11.118998,2.21E-11,,
