5/8/2019, 5:42:37 PM ,,,
 Current Sensitivity ,1.00E-09,,,
 This file comes from It only measurement ,0.00E+00,,,
 Sampling rate ,500,,,
 Number of samples per channel ,-1,,,
 No filter from Labview , , , ,
 , ,,,
 ***End_of_Header*** ,,,,
 , Time , Current , Filtered Current , 
,1.07E-06,-3.73E-11,,
,0.002001,-7.50E-11,,
,0.004001,-1.13E-10,,
,0.006001,-1.14E-10,,
,0.008001,-1.15E-10,,
,0.010001,-1.14E-10,,
,0.012001,-1.13E-10,,
,0.014001,-1.12E-10,,
,0.016001,-1.10E-10,,
,0.018001,-1.10E-10,,
,0.020001,-1.10E-10,,
,0.022001,-1.11E-10,,
,0.024001,-1.11E-10,,
,0.026001,-1.11E-10,,
,0.028001,-1.10E-10,,
,0.030001,-1.09E-10,,
,0.032001,-1.07E-10,,
,0.034001,-1.06E-10,,
,0.036001,-1.06E-10,,
,0.038001,-1.07E-10,,
,0.040001,-1.07E-10,,
,0.042001,-1.07E-10,,
,0.044001,-1.06E-10,,
,0.046001,-1.05E-10,,
,0.048001,-1.03E-10,,
,0.050001,-1.02E-10,,
,0.052001,-1.02E-10,,
,0.054001,-1.02E-10,,
,0.056001,-1.03E-10,,
,0.058001,-1.03E-10,,
,0.060001,-1.03E-10,,
,0.062001,-1.01E-10,,
,0.064001,-9.93E-11,,
,0.066001,-9.78E-11,,
,0.068001,-9.72E-11,,
,0.070001,-9.77E-11,,
,0.072001,-9.83E-11,,
,0.074001,-9.88E-11,,
,0.076001,-9.85E-11,,
,0.078001,-9.78E-11,,
,0.080001,-9.63E-11,,
,0.082001,-9.48E-11,,
,0.084001,-9.35E-11,,
,0.086001,-9.35E-11,,
,0.088001,-9.42E-11,,
,0.090001,-9.50E-11,,
,0.092001,-9.51E-11,,
,0.094001,-9.46E-11,,
,0.096001,-9.33E-11,,
,0.098001,-9.18E-11,,
,0.100001,-9.05E-11,,
,0.102001,-9.03E-11,,
,0.104001,-9.10E-11,,
,0.106001,-9.20E-11,,
,0.108001,-9.26E-11,,
,0.110001,-9.24E-11,,
,0.112001,-9.15E-11,,
,0.114001,-9.04E-11,,
,0.116001,-8.92E-11,,
,0.118001,-8.89E-11,,
,0.120001,-8.90E-11,,
,0.122001,-9.00E-11,,
,0.124001,-9.07E-11,,
,0.126001,-9.10E-11,,
,0.128001,-9.01E-11,,
,0.130001,-8.85E-11,,
,0.132001,-8.69E-11,,
,0.134001,-8.61E-11,,
,0.136001,-8.67E-11,,
,0.138001,-8.79E-11,,
,0.140001,-8.93E-11,,
,0.142001,-9.00E-11,,
,0.144001,-8.99E-11,,
,0.146001,-8.89E-11,,
,0.148001,-8.76E-11,,
,0.150001,-8.66E-11,,
,0.152001,-8.66E-11,,
,0.154001,-8.73E-11,,
,0.156001,-8.87E-11,,
,0.158001,-8.96E-11,,
,0.160001,-8.96E-11,,
,0.162001,-8.84E-11,,
,0.164001,-8.69E-11,,
,0.166001,-8.57E-11,,
,0.168001,-8.56E-11,,
,0.170001,-8.64E-11,,
,0.172001,-8.77E-11,,
,0.174001,-8.87E-11,,
,0.176001,-8.88E-11,,
,0.178001,-8.79E-11,,
,0.180001,-8.67E-11,,
,0.182001,-8.55E-11,,
,0.184001,-8.54E-11,,
,0.186001,-8.61E-11,,
,0.188001,-8.75E-11,,
,0.190001,-8.86E-11,,
,0.192001,-8.90E-11,,
,0.194001,-8.86E-11,,
,0.196001,-8.75E-11,,
,0.198001,-8.64E-11,,
,0.200001,-8.57E-11,,
,0.202001,-8.59E-11,,
,0.204001,-8.67E-11,,
,0.206001,-8.78E-11,,
,0.208001,-8.87E-11,,
,0.210001,-8.87E-11,,
,0.212001,-8.78E-11,,
,0.214001,-8.63E-11,,
,0.216001,-8.56E-11,,
,0.218001,-8.54E-11,,
,0.220001,-8.63E-11,,
,0.222001,-8.73E-11,,
,0.224001,-8.82E-11,,
,0.226001,-8.82E-11,,
,0.228001,-8.75E-11,,
,0.230001,-8.64E-11,,
,0.232001,-8.53E-11,,
,0.234001,-8.46E-11,,
,0.236001,-8.49E-11,,
,0.238001,-8.63E-11,,
,0.240001,-8.77E-11,,
,0.242001,-8.85E-11,,
,0.244001,-8.82E-11,,
,0.246001,-8.70E-11,,
,0.248001,-8.57E-11,,
,0.250001,-8.47E-11,,
,0.252001,-8.47E-11,,
,0.254001,-8.55E-11,,
,0.256001,-8.66E-11,,
,0.258001,-8.74E-11,,
,0.260001,-8.73E-11,,
,0.262001,-8.63E-11,,
,0.264001,-8.48E-11,,
,0.266001,-8.35E-11,,
,0.268001,-8.31E-11,,
,0.270001,-8.39E-11,,
,0.272001,-8.51E-11,,
,0.274001,-8.60E-11,,
,0.276001,-8.61E-11,,
,0.278001,-8.55E-11,,
,0.280001,-8.40E-11,,
,0.282001,-8.22E-11,,
,0.284001,-8.12E-11,,
,0.286001,-8.14E-11,,
,0.288001,-8.24E-11,,
,0.290001,-8.31E-11,,
,0.292001,-8.33E-11,,
,0.294001,-8.27E-11,,
,0.296001,-8.15E-11,,
,0.298001,-8.00E-11,,
,0.300001,-7.89E-11,,
,0.302001,-7.87E-11,,
,0.304001,-7.95E-11,,
,0.306001,-8.03E-11,,
,0.308001,-8.08E-11,,
,0.310001,-8.04E-11,,
,0.312001,-7.96E-11,,
,0.314001,-7.82E-11,,
,0.316001,-7.68E-11,,
,0.318001,-7.64E-11,,
,0.320001,-7.69E-11,,
,0.322001,-7.78E-11,,
,0.324001,-7.84E-11,,
,0.326001,-7.83E-11,,
,0.328001,-7.75E-11,,
,0.330001,-7.58E-11,,
,0.332001,-7.43E-11,,
,0.334001,-7.35E-11,,
,0.336001,-7.37E-11,,
,0.338001,-7.42E-11,,
,0.340001,-7.50E-11,,
,0.342001,-7.53E-11,,
,0.344001,-7.52E-11,,
,0.346001,-7.40E-11,,
,0.348001,-7.26E-11,,
,0.350001,-7.13E-11,,
,0.352001,-7.10E-11,,
,0.354001,-7.17E-11,,
,0.356001,-7.27E-11,,
,0.358001,-7.33E-11,,
,0.360001,-7.30E-11,,
,0.362001,-7.22E-11,,
,0.364001,-7.08E-11,,
,0.366001,-6.98E-11,,
,0.368001,-6.92E-11,,
,0.370001,-6.98E-11,,
,0.372001,-7.07E-11,,
,0.374001,-7.17E-11,,
,0.376001,-7.18E-11,,
,0.378001,-7.13E-11,,
,0.380001,-6.99E-11,,
,0.382001,-6.85E-11,,
,0.384001,-6.77E-11,,
,0.386001,-6.80E-11,,
,0.388001,-6.89E-11,,
,0.390001,-7.01E-11,,
,0.392001,-7.07E-11,,
,0.394001,-7.03E-11,,
,0.396001,-6.92E-11,,
,0.398001,-6.77E-11,,
,0.400001,-6.67E-11,,
,0.402001,-6.67E-11,,
,0.404001,-6.79E-11,,
,0.406001,-6.94E-11,,
,0.408001,-7.05E-11,,
,0.410001,-7.09E-11,,
,0.412001,-7.03E-11,,
,0.414001,-6.93E-11,,
,0.416001,-6.83E-11,,
,0.418001,-6.81E-11,,
,0.420001,-6.87E-11,,
,0.422001,-6.98E-11,,
,0.424001,-7.10E-11,,
,0.426001,-7.14E-11,,
,0.428001,-7.12E-11,,
,0.430001,-7.02E-11,,
,0.432001,-6.92E-11,,
,0.434001,-6.84E-11,,
,0.436001,-6.87E-11,,
,0.438001,-6.99E-11,,
,0.440001,-7.12E-11,,
,0.442001,-7.18E-11,,
,0.444001,-7.17E-11,,
,0.446001,-7.10E-11,,
,0.448001,-6.97E-11,,
,0.450001,-6.89E-11,,
,0.452001,-6.89E-11,,
,0.454001,-7.02E-11,,
,0.456001,-7.16E-11,,
,0.458001,-7.26E-11,,
,0.460001,-7.28E-11,,
,0.462001,-7.22E-11,,
,0.464001,-7.09E-11,,
,0.466001,-6.96E-11,,
,0.468001,-6.92E-11,,
,0.470001,-6.98E-11,,
,0.472001,-7.10E-11,,
,0.474001,-7.21E-11,,
,0.476001,-7.24E-11,,
,0.478001,-7.17E-11,,
,0.480001,-7.07E-11,,
,0.482001,-6.97E-11,,
,0.484001,-6.94E-11,,
,0.486001,-6.99E-11,,
,0.488001,-7.13E-11,,
,0.490001,-7.27E-11,,
,0.492001,-7.35E-11,,
,0.494001,-7.33E-11,,
,0.496001,-7.26E-11,,
,0.498001,-7.16E-11,,
,0.500001,-7.07E-11,,
,0.502001,-7.09E-11,,
,0.504001,-7.16E-11,,
,0.506001,-7.31E-11,,
,0.508001,-7.41E-11,,
,0.510001,-7.45E-11,,
,0.512001,-7.39E-11,,
,0.514001,-7.28E-11,,
,0.516001,-7.17E-11,,
,0.518001,-7.20E-11,,
,0.520001,-7.29E-11,,
,0.522001,-7.47E-11,,
,0.524001,-7.58E-11,,
,0.526001,-7.64E-11,,
,0.528001,-7.58E-11,,
,0.530001,-7.49E-11,,
,0.532001,-7.37E-11,,
,0.534001,-7.32E-11,,
,0.536001,-7.38E-11,,
,0.538001,-7.52E-11,,
,0.540001,-7.62E-11,,
,0.542001,-7.69E-11,,
,0.544001,-7.69E-11,,
,0.546001,-7.65E-11,,
,0.548001,-7.54E-11,,
,0.550001,-7.43E-11,,
,0.552001,-7.42E-11,,
,0.554001,-7.52E-11,,
,0.556001,-7.66E-11,,
,0.558001,-7.72E-11,,
,0.560001,-7.70E-11,,
,0.562001,-7.61E-11,,
,0.564001,-7.51E-11,,
,0.566001,-7.41E-11,,
,0.568001,-7.37E-11,,
,0.570001,-7.42E-11,,
,0.572001,-7.55E-11,,
,0.574001,-7.65E-11,,
,0.576001,-7.67E-11,,
,0.578001,-7.58E-11,,
,0.580001,-7.47E-11,,
,0.582001,-7.35E-11,,
,0.584001,-7.30E-11,,
,0.586001,-7.33E-11,,
,0.588001,-7.46E-11,,
,0.590001,-7.58E-11,,
,0.592001,-7.68E-11,,
,0.594001,-7.66E-11,,
,0.596001,-7.54E-11,,
,0.598001,-7.37E-11,,
,0.600001,-7.25E-11,,
,0.602001,-7.25E-11,,
,0.604001,-7.33E-11,,
,0.606001,-7.45E-11,,
,0.608001,-7.52E-11,,
,0.610001,-7.50E-11,,
,0.612001,-7.41E-11,,
,0.614001,-7.26E-11,,
,0.616001,-7.14E-11,,
,0.618001,-7.08E-11,,
,0.620001,-7.13E-11,,
,0.622001,-7.23E-11,,
,0.624001,-7.32E-11,,
,0.626001,-7.35E-11,,
,0.628001,-7.27E-11,,
,0.630001,-7.14E-11,,
,0.632001,-7.01E-11,,
,0.634001,-6.94E-11,,
,0.636001,-6.95E-11,,
,0.638001,-7.02E-11,,
,0.640001,-7.14E-11,,
,0.642001,-7.17E-11,,
,0.644001,-7.14E-11,,
,0.646001,-7.03E-11,,
,0.648001,-6.91E-11,,
,0.650001,-6.82E-11,,
,0.652001,-6.79E-11,,
,0.654001,-6.88E-11,,
,0.656001,-6.99E-11,,
,0.658001,-7.06E-11,,
,0.660001,-7.01E-11,,
,0.662001,-6.91E-11,,
,0.664001,-6.77E-11,,
,0.666001,-6.64E-11,,
,0.668001,-6.57E-11,,
,0.670001,-6.63E-11,,
,0.672001,-6.72E-11,,
,0.674001,-6.81E-11,,
,0.676001,-6.83E-11,,
,0.678001,-6.78E-11,,
,0.680001,-6.66E-11,,
,0.682001,-6.52E-11,,
,0.684001,-6.45E-11,,
,0.686001,-6.48E-11,,
,0.688001,-6.55E-11,,
,0.690001,-6.65E-11,,
,0.692001,-6.69E-11,,
,0.694001,-6.68E-11,,
,0.696001,-6.58E-11,,
,0.698001,-6.48E-11,,
,0.700001,-6.38E-11,,
,0.702001,-6.36E-11,,
,0.704001,-6.42E-11,,
,0.706001,-6.54E-11,,
,0.708001,-6.64E-11,,
,0.710001,-6.65E-11,,
,0.712001,-6.58E-11,,
,0.714001,-6.45E-11,,
,0.716001,-6.35E-11,,
,0.718001,-6.29E-11,,
,0.720001,-6.36E-11,,
,0.722001,-6.47E-11,,
,0.724001,-6.56E-11,,
,0.726001,-6.59E-11,,
,0.728001,-6.56E-11,,
,0.730001,-6.48E-11,,
,0.732001,-6.35E-11,,
,0.734001,-6.26E-11,,
,0.736001,-6.29E-11,,
,0.738001,-6.40E-11,,
,0.740001,-6.55E-11,,
,0.742001,-6.60E-11,,
,0.744001,-6.62E-11,,
,0.746001,-6.51E-11,,
,0.748001,-6.37E-11,,
,0.750001,-6.25E-11,,
,0.752001,-6.24E-11,,
,0.754001,-6.34E-11,,
,0.756001,-6.45E-11,,
,0.758001,-6.55E-11,,
,0.760001,-6.56E-11,,
,0.762001,-6.49E-11,,
,0.764001,-6.36E-11,,
,0.766001,-6.22E-11,,
,0.768001,-6.20E-11,,
,0.770001,-6.24E-11,,
,0.772001,-6.37E-11,,
,0.774001,-6.45E-11,,
,0.776001,-6.49E-11,,
,0.778001,-6.43E-11,,
,0.780001,-6.32E-11,,
,0.782001,-6.18E-11,,
,0.784001,-6.08E-11,,
,0.786001,-6.10E-11,,
,0.788001,-6.20E-11,,
,0.790001,-6.30E-11,,
,0.792001,-6.33E-11,,
,0.794001,-6.27E-11,,
,0.796001,-6.14E-11,,
,0.798001,-5.98E-11,,
,0.800001,-5.85E-11,,
,0.802001,-5.83E-11,,
,0.804001,-5.92E-11,,
,0.806001,-6.04E-11,,
,0.808001,-6.11E-11,,
,0.810001,-6.09E-11,,
,0.812001,-6.01E-11,,
,0.814001,-5.91E-11,,
,0.816001,-5.81E-11,,
,0.818001,-5.78E-11,,
,0.820001,-5.81E-11,,
,0.822001,-5.93E-11,,
,0.824001,-6.04E-11,,
,0.826001,-6.08E-11,,
,0.828001,-6.03E-11,,
,0.830001,-5.90E-11,,
,0.832001,-5.76E-11,,
,0.834001,-5.68E-11,,
,0.836001,-5.68E-11,,
,0.838001,-5.77E-11,,
,0.840001,-5.89E-11,,
,0.842001,-5.95E-11,,
,0.844001,-5.93E-11,,
,0.846001,-5.79E-11,,
,0.848001,-5.63E-11,,
,0.850001,-5.51E-11,,
,0.852001,-5.51E-11,,
,0.854001,-5.62E-11,,
,0.856001,-5.74E-11,,
,0.858001,-5.79E-11,,
,0.860001,-5.77E-11,,
,0.862001,-5.67E-11,,
,0.864001,-5.53E-11,,
,0.866001,-5.40E-11,,
,0.868001,-5.36E-11,,
,0.870001,-5.41E-11,,
,0.872001,-5.51E-11,,
,0.874001,-5.62E-11,,
,0.876001,-5.64E-11,,
,0.878001,-5.55E-11,,
,0.880001,-5.40E-11,,
,0.882001,-5.27E-11,,
,0.884001,-5.21E-11,,
,0.886001,-5.22E-11,,
,0.888001,-5.28E-11,,
,0.890001,-5.37E-11,,
,0.892001,-5.41E-11,,
,0.894001,-5.39E-11,,
,0.896001,-5.31E-11,,
,0.898001,-5.18E-11,,
,0.900001,-5.07E-11,,
,0.902001,-5.05E-11,,
,0.904001,-5.12E-11,,
,0.906001,-5.22E-11,,
,0.908001,-5.32E-11,,
,0.910001,-5.33E-11,,
,0.912001,-5.27E-11,,
,0.914001,-5.14E-11,,
,0.916001,-5.05E-11,,
,0.918001,-5.02E-11,,
,0.920001,-5.10E-11,,
,0.922001,-5.24E-11,,
,0.924001,-5.39E-11,,
,0.926001,-5.46E-11,,
,0.928001,-5.39E-11,,
,0.930001,-5.26E-11,,
,0.932001,-5.12E-11,,
,0.934001,-5.05E-11,,
,0.936001,-5.06E-11,,
,0.938001,-5.17E-11,,
,0.940001,-5.31E-11,,
,0.942001,-5.41E-11,,
,0.944001,-5.42E-11,,
,0.946001,-5.36E-11,,
,0.948001,-5.25E-11,,
,0.950001,-5.18E-11,,
,0.952001,-5.22E-11,,
,0.954001,-5.35E-11,,
,0.956001,-5.51E-11,,
,0.958001,-5.64E-11,,
,0.960001,-5.67E-11,,
,0.962001,-5.64E-11,,
,0.964001,-5.53E-11,,
,0.966001,-5.47E-11,,
,0.968001,-5.43E-11,,
,0.970001,-5.53E-11,,
,0.972001,-5.66E-11,,
,0.974001,-5.79E-11,,
,0.976001,-5.85E-11,,
,0.978001,-5.85E-11,,
,0.980001,-5.79E-11,,
,0.982001,-5.67E-11,,
,0.984001,-5.62E-11,,
,0.986001,-5.67E-11,,
,0.988001,-5.82E-11,,
,0.990001,-5.97E-11,,
,0.992001,-6.07E-11,,
,0.994001,-6.05E-11,,
,0.996001,-5.95E-11,,
,0.998001,-5.81E-11,,
,1.000001,-5.71E-11,,
,1.002001,-5.70E-11,,
,1.004001,-5.80E-11,,
,1.006001,-5.94E-11,,
,1.008001,-6.01E-11,,
,1.010001,-6.03E-11,,
,1.012001,-5.95E-11,,
,1.014001,-5.85E-11,,
,1.016001,-5.74E-11,,
,1.018001,-5.69E-11,,
,1.020001,-5.77E-11,,
,1.022001,-5.90E-11,,
,1.024001,-6.00E-11,,
,1.026001,-6.00E-11,,
,1.028001,-5.93E-11,,
,1.030001,-5.80E-11,,
,1.032001,-5.66E-11,,
,1.034001,-5.59E-11,,
,1.036001,-5.60E-11,,
,1.038001,-5.71E-11,,
,1.040001,-5.80E-11,,
,1.042001,-5.85E-11,,
,1.044001,-5.80E-11,,
,1.046001,-5.69E-11,,
,1.048001,-5.55E-11,,
,1.050001,-5.45E-11,,
,1.052001,-5.41E-11,,
,1.054001,-5.48E-11,,
,1.056001,-5.57E-11,,
,1.058001,-5.66E-11,,
,1.060001,-5.65E-11,,
,1.062001,-5.56E-11,,
,1.064001,-5.42E-11,,
,1.066001,-5.31E-11,,
,1.068001,-5.24E-11,,
,1.070001,-5.28E-11,,
,1.072001,-5.36E-11,,
,1.074001,-5.48E-11,,
,1.076001,-5.50E-11,,
,1.078001,-5.47E-11,,
,1.080001,-5.32E-11,,
,1.082001,-5.18E-11,,
,1.084001,-5.08E-11,,
,1.086001,-5.12E-11,,
,1.088001,-5.23E-11,,
,1.090001,-5.34E-11,,
,1.092001,-5.38E-11,,
,1.094001,-5.36E-11,,
,1.096001,-5.25E-11,,
,1.098001,-5.09E-11,,
,1.100001,-4.97E-11,,
,1.102001,-4.95E-11,,
,1.104001,-5.04E-11,,
,1.106001,-5.13E-11,,
,1.108001,-5.21E-11,,
,1.110001,-5.21E-11,,
,1.112001,-5.16E-11,,
,1.114001,-5.03E-11,,
,1.116001,-4.88E-11,,
,1.118001,-4.79E-11,,
,1.120001,-4.86E-11,,
,1.122001,-4.98E-11,,
,1.124001,-5.12E-11,,
,1.126001,-5.18E-11,,
,1.128001,-5.16E-11,,
,1.130001,-5.01E-11,,
,1.132001,-4.84E-11,,
,1.134001,-4.75E-11,,
,1.136001,-4.78E-11,,
,1.138001,-4.88E-11,,
,1.140001,-4.99E-11,,
,1.142001,-5.07E-11,,
,1.144001,-5.07E-11,,
,1.146001,-4.99E-11,,
,1.148001,-4.87E-11,,
,1.150001,-4.79E-11,,
,1.152001,-4.81E-11,,
,1.154001,-4.94E-11,,
,1.156001,-5.08E-11,,
,1.158001,-5.18E-11,,
,1.160001,-5.19E-11,,
,1.162001,-5.14E-11,,
,1.164001,-5.03E-11,,
,1.166001,-4.92E-11,,
,1.168001,-4.87E-11,,
,1.170001,-4.95E-11,,
,1.172001,-5.11E-11,,
,1.174001,-5.26E-11,,
,1.176001,-5.33E-11,,
,1.178001,-5.32E-11,,
,1.180001,-5.22E-11,,
,1.182001,-5.12E-11,,
,1.184001,-5.07E-11,,
,1.186001,-5.13E-11,,
,1.188001,-5.26E-11,,
,1.190001,-5.41E-11,,
,1.192001,-5.52E-11,,
,1.194001,-5.54E-11,,
,1.196001,-5.48E-11,,
,1.198001,-5.36E-11,,
,1.200001,-5.28E-11,,
,1.202001,-5.30E-11,,
,1.204001,-5.40E-11,,
,1.206001,-5.54E-11,,
,1.208001,-5.65E-11,,
,1.210001,-5.66E-11,,
,1.212001,-5.61E-11,,
,1.214001,-5.49E-11,,
,1.216001,-5.42E-11,,
,1.218001,-5.39E-11,,
,1.220001,-5.49E-11,,
,1.222001,-5.60E-11,,
,1.224001,-5.70E-11,,
,1.226001,-5.75E-11,,
,1.228001,-5.72E-11,,
,1.230001,-5.64E-11,,
,1.232001,-5.51E-11,,
,1.234001,-5.45E-11,,
,1.236001,-5.48E-11,,
,1.238001,-5.62E-11,,
,1.240001,-5.77E-11,,
,1.242001,-5.89E-11,,
,1.244001,-5.89E-11,,
,1.246001,-5.80E-11,,
,1.248001,-5.68E-11,,
,1.250001,-5.60E-11,,
,1.252001,-5.62E-11,,
,1.254001,-5.75E-11,,
,1.256001,-5.92E-11,,
,1.258001,-6.04E-11,,
,1.260001,-6.05E-11,,
,1.262001,-5.97E-11,,
,1.264001,-5.85E-11,,
,1.266001,-5.72E-11,,
,1.268001,-5.68E-11,,
,1.270001,-5.74E-11,,
,1.272001,-5.90E-11,,
,1.274001,-6.04E-11,,
,1.276001,-6.11E-11,,
,1.278001,-6.07E-11,,
,1.280001,-5.98E-11,,
,1.282001,-5.85E-11,,
,1.284001,-5.78E-11,,
,1.286001,-5.81E-11,,
,1.288001,-5.93E-11,,
,1.290001,-6.08E-11,,
,1.292001,-6.14E-11,,
,1.294001,-6.13E-11,,
,1.296001,-6.04E-11,,
,1.298001,-5.92E-11,,
,1.300001,-5.82E-11,,
,1.302001,-5.82E-11,,
,1.304001,-5.90E-11,,
,1.306001,-6.03E-11,,
,1.308001,-6.10E-11,,
,1.310001,-6.12E-11,,
,1.312001,-6.07E-11,,
,1.314001,-5.98E-11,,
,1.316001,-5.87E-11,,
,1.318001,-5.85E-11,,
,1.320001,-5.92E-11,,
,1.322001,-6.05E-11,,
,1.324001,-6.15E-11,,
,1.326001,-6.21E-11,,
,1.328001,-6.15E-11,,
,1.330001,-6.04E-11,,
,1.332001,-5.90E-11,,
,1.334001,-5.83E-11,,
,1.336001,-5.85E-11,,
,1.338001,-5.95E-11,,
,1.340001,-6.06E-11,,
,1.342001,-6.12E-11,,
,1.344001,-6.10E-11,,
,1.346001,-6.03E-11,,
,1.348001,-5.92E-11,,
,1.350001,-5.83E-11,,
,1.352001,-5.81E-11,,
,1.354001,-5.91E-11,,
,1.356001,-6.07E-11,,
,1.358001,-6.18E-11,,
,1.360001,-6.18E-11,,
,1.362001,-6.08E-11,,
,1.364001,-5.96E-11,,
,1.366001,-5.83E-11,,
,1.368001,-5.78E-11,,
,1.370001,-5.84E-11,,
,1.372001,-5.98E-11,,
,1.374001,-6.11E-11,,
,1.376001,-6.13E-11,,
,1.378001,-6.08E-11,,
,1.380001,-5.94E-11,,
,1.382001,-5.80E-11,,
,1.384001,-5.69E-11,,
,1.386001,-5.72E-11,,
,1.388001,-5.83E-11,,
,1.390001,-5.97E-11,,
,1.392001,-6.01E-11,,
,1.394001,-5.97E-11,,
,1.396001,-5.86E-11,,
,1.398001,-5.72E-11,,
,1.400001,-5.62E-11,,
,1.402001,-5.54E-11,,
,1.404001,-5.59E-11,,
,1.406001,-5.68E-11,,
,1.408001,-5.77E-11,,
,1.410001,-5.78E-11,,
,1.412001,-5.70E-11,,
,1.414001,-5.56E-11,,
,1.416001,-5.41E-11,,
,1.418001,-5.32E-11,,
,1.420001,-5.37E-11,,
,1.422001,-5.47E-11,,
,1.424001,-5.56E-11,,
,1.426001,-5.57E-11,,
,1.428001,-5.51E-11,,
,1.430001,-5.36E-11,,
,1.432001,-5.19E-11,,
,1.434001,-5.08E-11,,
,1.436001,-5.08E-11,,
,1.438001,-5.17E-11,,
,1.440001,-5.26E-11,,
,1.442001,-5.33E-11,,
,1.444001,-5.30E-11,,
,1.446001,-5.16E-11,,
,1.448001,-4.99E-11,,
,1.450001,-4.87E-11,,
,1.452001,-4.83E-11,,
,1.454001,-4.91E-11,,
,1.456001,-5.03E-11,,
,1.458001,-5.13E-11,,
,1.460001,-5.13E-11,,
,1.462001,-5.05E-11,,
,1.464001,-4.89E-11,,
,1.466001,-4.75E-11,,
,1.468001,-4.66E-11,,
,1.470001,-4.69E-11,,
,1.472001,-4.78E-11,,
,1.474001,-4.88E-11,,
,1.476001,-4.92E-11,,
,1.478001,-4.86E-11,,
,1.480001,-4.73E-11,,
,1.482001,-4.60E-11,,
,1.484001,-4.52E-11,,
,1.486001,-4.53E-11,,
,1.488001,-4.61E-11,,
,1.490001,-4.73E-11,,
,1.492001,-4.78E-11,,
,1.494001,-4.75E-11,,
,1.496001,-4.61E-11,,
,1.498001,-4.48E-11,,
,1.500001,-4.38E-11,,
,1.502001,-4.37E-11,,
,1.504001,-4.44E-11,,
,1.506001,-4.54E-11,,
,1.508001,-4.64E-11,,
,1.510001,-4.66E-11,,
,1.512001,-4.58E-11,,
,1.514001,-4.43E-11,,
,1.516001,-4.28E-11,,
,1.518001,-4.22E-11,,
,1.520001,-4.31E-11,,
,1.522001,-4.43E-11,,
,1.524001,-4.53E-11,,
,1.526001,-4.51E-11,,
,1.528001,-4.46E-11,,
,1.530001,-4.32E-11,,
,1.532001,-4.21E-11,,
,1.534001,-4.13E-11,,
,1.536001,-4.15E-11,,
,1.538001,-4.25E-11,,
,1.540001,-4.36E-11,,
,1.542001,-4.43E-11,,
,1.544001,-4.38E-11,,
,1.546001,-4.31E-11,,
,1.548001,-4.18E-11,,
,1.550001,-4.09E-11,,
,1.552001,-4.06E-11,,
,1.554001,-4.15E-11,,
,1.556001,-4.26E-11,,
,1.558001,-4.36E-11,,
,1.560001,-4.35E-11,,
,1.562001,-4.29E-11,,
,1.564001,-4.15E-11,,
,1.566001,-4.03E-11,,
,1.568001,-3.94E-11,,
,1.570001,-4.02E-11,,
,1.572001,-4.15E-11,,
,1.574001,-4.29E-11,,
,1.576001,-4.30E-11,,
,1.578001,-4.24E-11,,
,1.580001,-4.11E-11,,
,1.582001,-3.97E-11,,
,1.584001,-3.89E-11,,
,1.586001,-3.90E-11,,
,1.588001,-4.01E-11,,
,1.590001,-4.14E-11,,
,1.592001,-4.21E-11,,
,1.594001,-4.18E-11,,
,1.596001,-4.05E-11,,
,1.598001,-3.89E-11,,
,1.600001,-3.79E-11,,
,1.602001,-3.75E-11,,
,1.604001,-3.80E-11,,
,1.606001,-3.91E-11,,
,1.608001,-4.00E-11,,
,1.610001,-4.01E-11,,
,1.612001,-3.91E-11,,
,1.614001,-3.78E-11,,
,1.616001,-3.67E-11,,
,1.618001,-3.64E-11,,
,1.620001,-3.71E-11,,
,1.622001,-3.81E-11,,
,1.624001,-3.93E-11,,
,1.626001,-3.95E-11,,
,1.628001,-3.88E-11,,
,1.630001,-3.71E-11,,
,1.632001,-3.57E-11,,
,1.634001,-3.49E-11,,
,1.636001,-3.51E-11,,
,1.638001,-3.63E-11,,
,1.640001,-3.76E-11,,
,1.642001,-3.84E-11,,
,1.644001,-3.82E-11,,
,1.646001,-3.72E-11,,
,1.648001,-3.60E-11,,
,1.650001,-3.47E-11,,
,1.652001,-3.47E-11,,
,1.654001,-3.56E-11,,
,1.656001,-3.72E-11,,
,1.658001,-3.81E-11,,
,1.660001,-3.82E-11,,
,1.662001,-3.75E-11,,
,1.664001,-3.60E-11,,
,1.666001,-3.46E-11,,
,1.668001,-3.37E-11,,
,1.670001,-3.42E-11,,
,1.672001,-3.51E-11,,
,1.674001,-3.61E-11,,
,1.676001,-3.66E-11,,
,1.678001,-3.64E-11,,
,1.680001,-3.53E-11,,
,1.682001,-3.36E-11,,
,1.684001,-3.24E-11,,
,1.686001,-3.24E-11,,
,1.688001,-3.35E-11,,
,1.690001,-3.48E-11,,
,1.692001,-3.53E-11,,
,1.694001,-3.50E-11,,
,1.696001,-3.39E-11,,
,1.698001,-3.29E-11,,
,1.700001,-3.19E-11,,
,1.702001,-3.17E-11,,
,1.704001,-3.23E-11,,
,1.706001,-3.39E-11,,
,1.708001,-3.49E-11,,
,1.710001,-3.51E-11,,
,1.712001,-3.41E-11,,
,1.714001,-3.30E-11,,
,1.716001,-3.18E-11,,
,1.718001,-3.16E-11,,
,1.720001,-3.22E-11,,
,1.722001,-3.36E-11,,
,1.724001,-3.50E-11,,
,1.726001,-3.56E-11,,
,1.728001,-3.51E-11,,
,1.730001,-3.41E-11,,
,1.732001,-3.28E-11,,
,1.734001,-3.20E-11,,
,1.736001,-3.20E-11,,
,1.738001,-3.33E-11,,
,1.740001,-3.48E-11,,
,1.742001,-3.58E-11,,
,1.744001,-3.57E-11,,
,1.746001,-3.51E-11,,
,1.748001,-3.42E-11,,
,1.750001,-3.33E-11,,
,1.752001,-3.30E-11,,
,1.754001,-3.36E-11,,
,1.756001,-3.49E-11,,
,1.758001,-3.59E-11,,
,1.760001,-3.64E-11,,
,1.762001,-3.59E-11,,
,1.764001,-3.46E-11,,
,1.766001,-3.34E-11,,
,1.768001,-3.31E-11,,
,1.770001,-3.41E-11,,
,1.772001,-3.56E-11,,
,1.774001,-3.71E-11,,
,1.776001,-3.75E-11,,
,1.778001,-3.72E-11,,
,1.780001,-3.61E-11,,
,1.782001,-3.52E-11,,
,1.784001,-3.46E-11,,
,1.786001,-3.50E-11,,
,1.788001,-3.63E-11,,
,1.790001,-3.78E-11,,
,1.792001,-3.87E-11,,
,1.794001,-3.87E-11,,
,1.796001,-3.78E-11,,
,1.798001,-3.66E-11,,
,1.800001,-3.57E-11,,
,1.802001,-3.59E-11,,
,1.804001,-3.68E-11,,
,1.806001,-3.86E-11,,
,1.808001,-3.96E-11,,
,1.810001,-4.00E-11,,
,1.812001,-3.94E-11,,
,1.814001,-3.84E-11,,
,1.816001,-3.73E-11,,
,1.818001,-3.71E-11,,
,1.820001,-3.77E-11,,
,1.822001,-3.94E-11,,
,1.824001,-4.05E-11,,
,1.826001,-4.11E-11,,
,1.828001,-4.09E-11,,
,1.830001,-4.02E-11,,
,1.832001,-3.92E-11,,
,1.834001,-3.85E-11,,
,1.836001,-3.89E-11,,
,1.838001,-4.01E-11,,
,1.840001,-4.16E-11,,
,1.842001,-4.23E-11,,
,1.844001,-4.22E-11,,
,1.846001,-4.15E-11,,
,1.848001,-4.01E-11,,
,1.850001,-3.90E-11,,
,1.852001,-3.89E-11,,
,1.854001,-4.00E-11,,
,1.856001,-4.15E-11,,
,1.858001,-4.22E-11,,
,1.860001,-4.21E-11,,
,1.862001,-4.13E-11,,
,1.864001,-3.96E-11,,
,1.866001,-3.81E-11,,
,1.868001,-3.72E-11,,
,1.870001,-3.78E-11,,
,1.872001,-3.91E-11,,
,1.874001,-4.04E-11,,
,1.876001,-4.08E-11,,
,1.878001,-4.03E-11,,
,1.880001,-3.92E-11,,
,1.882001,-3.80E-11,,
,1.884001,-3.74E-11,,
,1.886001,-3.76E-11,,
,1.888001,-3.89E-11,,
,1.890001,-4.04E-11,,
,1.892001,-4.15E-11,,
,1.894001,-4.15E-11,,
,1.896001,-4.06E-11,,
,1.898001,-3.92E-11,,
,1.900001,-3.80E-11,,
,1.902001,-3.78E-11,,
,1.904001,-3.88E-11,,
,1.906001,-4.02E-11,,
,1.908001,-4.13E-11,,
,1.910001,-4.15E-11,,
,1.912001,-4.08E-11,,
,1.914001,-3.97E-11,,
,1.916001,-3.86E-11,,
,1.918001,-3.82E-11,,
,1.920001,-3.86E-11,,
,1.922001,-3.99E-11,,
,1.924001,-4.08E-11,,
,1.926001,-4.14E-11,,
,1.928001,-4.10E-11,,
,1.930001,-4.00E-11,,
,1.932001,-3.87E-11,,
,1.934001,-3.77E-11,,
,1.936001,-3.78E-11,,
,1.938001,-3.90E-11,,
,1.940001,-4.02E-11,,
,1.942001,-4.09E-11,,
,1.944001,-4.06E-11,,
,1.946001,-3.96E-11,,
,1.948001,-3.81E-11,,
,1.950001,-3.71E-11,,
,1.952001,-3.70E-11,,
,1.954001,-3.80E-11,,
,1.956001,-3.94E-11,,
,1.958001,-4.06E-11,,
,1.960001,-4.08E-11,,
,1.962001,-4.02E-11,,
,1.964001,-3.88E-11,,
,1.966001,-3.75E-11,,
,1.968001,-3.70E-11,,
,1.970001,-3.74E-11,,
,1.972001,-3.87E-11,,
,1.974001,-4.00E-11,,
,1.976001,-4.06E-11,,
,1.978001,-4.03E-11,,
,1.980001,-3.91E-11,,
,1.982001,-3.79E-11,,
,1.984001,-3.71E-11,,
,1.986001,-3.75E-11,,
,1.988001,-3.86E-11,,
,1.990001,-4.00E-11,,
,1.992001,-4.07E-11,,
,1.994001,-4.05E-11,,
,1.996001,-3.99E-11,,
,1.998001,-3.88E-11,,
,2.000001,-3.82E-11,,
,2.002001,-3.82E-11,,
,2.004001,-3.91E-11,,
,2.006001,-4.01E-11,,
,2.008001,-4.08E-11,,
,2.010001,-4.11E-11,,
,2.012001,-4.08E-11,,
,2.014001,-3.97E-11,,
,2.016001,-3.86E-11,,
,2.018001,-3.82E-11,,
,2.020001,-3.90E-11,,
,2.022001,-4.04E-11,,
,2.024001,-4.17E-11,,
,2.026001,-4.22E-11,,
,2.028001,-4.21E-11,,
,2.030001,-4.15E-11,,
,2.032001,-4.05E-11,,
,2.034001,-3.96E-11,,
,2.036001,-3.99E-11,,
,2.038001,-4.11E-11,,
,2.040001,-4.26E-11,,
,2.042001,-4.35E-11,,
,2.044001,-4.36E-11,,
,2.046001,-4.30E-11,,
,2.048001,-4.20E-11,,
,2.050001,-4.11E-11,,
,2.052001,-4.11E-11,,
,2.054001,-4.21E-11,,
,2.056001,-4.35E-11,,
,2.058001,-4.48E-11,,
,2.060001,-4.51E-11,,
,2.062001,-4.45E-11,,
,2.064001,-4.30E-11,,
,2.066001,-4.18E-11,,
,2.068001,-4.15E-11,,
,2.070001,-4.22E-11,,
,2.072001,-4.35E-11,,
,2.074001,-4.48E-11,,
,2.076001,-4.55E-11,,
,2.078001,-4.54E-11,,
,2.080001,-4.46E-11,,
,2.082001,-4.34E-11,,
,2.084001,-4.28E-11,,
,2.086001,-4.32E-11,,
,2.088001,-4.45E-11,,
,2.090001,-4.59E-11,,
,2.092001,-4.67E-11,,
,2.094001,-4.69E-11,,
,2.096001,-4.62E-11,,
,2.098001,-4.49E-11,,
,2.100001,-4.40E-11,,
,2.102001,-4.39E-11,,
,2.104001,-4.51E-11,,
,2.106001,-4.64E-11,,
,2.108001,-4.79E-11,,
,2.110001,-4.81E-11,,
,2.112001,-4.76E-11,,
,2.114001,-4.62E-11,,
,2.116001,-4.51E-11,,
,2.118001,-4.46E-11,,
,2.120001,-4.49E-11,,
,2.122001,-4.61E-11,,
,2.124001,-4.72E-11,,
,2.126001,-4.80E-11,,
,2.128001,-4.79E-11,,
,2.130001,-4.73E-11,,
,2.132001,-4.59E-11,,
,2.134001,-4.50E-11,,
,2.136001,-4.51E-11,,
,2.138001,-4.63E-11,,
,2.140001,-4.76E-11,,
,2.142001,-4.86E-11,,
,2.144001,-4.88E-11,,
,2.146001,-4.81E-11,,
,2.148001,-4.69E-11,,
,2.150001,-4.59E-11,,
,2.152001,-4.58E-11,,
,2.154001,-4.67E-11,,
,2.156001,-4.81E-11,,
,2.158001,-4.92E-11,,
,2.160001,-4.93E-11,,
,2.162001,-4.86E-11,,
,2.164001,-4.73E-11,,
,2.166001,-4.60E-11,,
,2.168001,-4.55E-11,,
,2.170001,-4.61E-11,,
,2.172001,-4.73E-11,,
,2.174001,-4.82E-11,,
,2.176001,-4.86E-11,,
,2.178001,-4.82E-11,,
,2.180001,-4.70E-11,,
,2.182001,-4.57E-11,,
,2.184001,-4.47E-11,,
,2.186001,-4.49E-11,,
,2.188001,-4.58E-11,,
,2.190001,-4.69E-11,,
,2.192001,-4.76E-11,,
,2.194001,-4.76E-11,,
,2.196001,-4.65E-11,,
,2.198001,-4.50E-11,,
,2.200001,-4.35E-11,,
,2.202001,-4.31E-11,,
,2.204001,-4.37E-11,,
,2.206001,-4.50E-11,,
,2.208001,-4.59E-11,,
,2.210001,-4.60E-11,,
,2.212001,-4.52E-11,,
,2.214001,-4.37E-11,,
,2.216001,-4.22E-11,,
,2.218001,-4.14E-11,,
,2.220001,-4.18E-11,,
,2.222001,-4.30E-11,,
,2.224001,-4.41E-11,,
,2.226001,-4.45E-11,,
,2.228001,-4.39E-11,,
,2.230001,-4.26E-11,,
,2.232001,-4.17E-11,,
,2.234001,-4.09E-11,,
,2.236001,-4.14E-11,,
,2.238001,-4.22E-11,,
,2.240001,-4.34E-11,,
,2.242001,-4.43E-11,,
,2.244001,-4.43E-11,,
,2.246001,-4.36E-11,,
,2.248001,-4.25E-11,,
,2.250001,-4.17E-11,,
,2.252001,-4.19E-11,,
,2.254001,-4.26E-11,,
,2.256001,-4.46E-11,,
,2.258001,-4.60E-11,,
,2.260001,-4.67E-11,,
,2.262001,-4.65E-11,,
,2.264001,-4.58E-11,,
,2.266001,-4.53E-11,,
,2.268001,-4.51E-11,,
,2.270001,-4.60E-11,,
,2.272001,-4.75E-11,,
,2.274001,-4.92E-11,,
,2.276001,-5.03E-11,,
,2.278001,-5.05E-11,,
,2.280001,-4.98E-11,,
,2.282001,-4.90E-11,,
,2.284001,-4.86E-11,,
,2.286001,-4.92E-11,,
,2.288001,-5.06E-11,,
,2.290001,-5.25E-11,,
,2.292001,-5.39E-11,,
,2.294001,-5.45E-11,,
,2.296001,-5.40E-11,,
,2.298001,-5.32E-11,,
,2.300001,-5.26E-11,,
,2.302001,-5.27E-11,,
,2.304001,-5.40E-11,,
,2.306001,-5.59E-11,,
,2.308001,-5.74E-11,,
,2.310001,-5.80E-11,,
,2.312001,-5.78E-11,,
,2.314001,-5.69E-11,,
,2.316001,-5.61E-11,,
,2.318001,-5.57E-11,,
,2.320001,-5.65E-11,,
,2.322001,-5.78E-11,,
,2.324001,-5.93E-11,,
,2.326001,-6.01E-11,,
,2.328001,-6.01E-11,,
,2.330001,-5.91E-11,,
,2.332001,-5.80E-11,,
,2.334001,-5.71E-11,,
,2.336001,-5.75E-11,,
,2.338001,-5.85E-11,,
,2.340001,-6.03E-11,,
,2.342001,-6.11E-11,,
,2.344001,-6.13E-11,,
,2.346001,-6.06E-11,,
,2.348001,-5.96E-11,,
,2.350001,-5.86E-11,,
,2.352001,-5.86E-11,,
,2.354001,-5.99E-11,,
,2.356001,-6.14E-11,,
,2.358001,-6.26E-11,,
,2.360001,-6.25E-11,,
,2.362001,-6.20E-11,,
,2.364001,-6.04E-11,,
,2.366001,-5.92E-11,,
,2.368001,-5.82E-11,,
,2.370001,-5.86E-11,,
,2.372001,-5.99E-11,,
,2.374001,-6.13E-11,,
,2.376001,-6.19E-11,,
,2.378001,-6.11E-11,,
,2.380001,-5.96E-11,,
,2.382001,-5.81E-11,,
,2.384001,-5.74E-11,,
,2.386001,-5.75E-11,,
,2.388001,-5.86E-11,,
,2.390001,-5.98E-11,,
,2.392001,-6.08E-11,,
,2.394001,-6.06E-11,,
,2.396001,-5.97E-11,,
,2.398001,-5.82E-11,,
,2.400001,-5.68E-11,,
,2.402001,-5.63E-11,,
,2.404001,-5.69E-11,,
,2.406001,-5.83E-11,,
,2.408001,-5.91E-11,,
,2.410001,-5.92E-11,,
,2.412001,-5.82E-11,,
,2.414001,-5.69E-11,,
,2.416001,-5.53E-11,,
,2.418001,-5.43E-11,,
,2.420001,-5.43E-11,,
,2.422001,-5.52E-11,,
,2.424001,-5.63E-11,,
,2.426001,-5.66E-11,,
,2.428001,-5.61E-11,,
,2.430001,-5.49E-11,,
,2.432001,-5.34E-11,,
,2.434001,-5.24E-11,,
,2.436001,-5.22E-11,,
,2.438001,-5.33E-11,,
,2.440001,-5.43E-11,,
,2.442001,-5.50E-11,,
,2.444001,-5.46E-11,,
,2.446001,-5.33E-11,,
,2.448001,-5.17E-11,,
,2.450001,-5.05E-11,,
,2.452001,-5.02E-11,,
,2.454001,-5.08E-11,,
,2.456001,-5.21E-11,,
,2.458001,-5.34E-11,,
,2.460001,-5.38E-11,,
,2.462001,-5.32E-11,,
,2.464001,-5.19E-11,,
,2.466001,-5.08E-11,,
,2.468001,-5.05E-11,,
,2.470001,-5.11E-11,,
,2.472001,-5.24E-11,,
,2.474001,-5.36E-11,,
,2.476001,-5.42E-11,,
,2.478001,-5.40E-11,,
,2.480001,-5.32E-11,,
,2.482001,-5.19E-11,,
,2.484001,-5.12E-11,,
,2.486001,-5.14E-11,,
,2.488001,-5.27E-11,,
,2.490001,-5.39E-11,,
,2.492001,-5.48E-11,,
,2.494001,-5.49E-11,,
,2.496001,-5.42E-11,,
,2.498001,-5.31E-11,,
,2.500001,-5.17E-11,,
,2.502001,-5.14E-11,,
,2.504001,-5.23E-11,,
,2.506001,-5.41E-11,,
,2.508001,-5.52E-11,,
,2.510001,-5.53E-11,,
,2.512001,-5.47E-11,,
,2.514001,-5.33E-11,,
,2.516001,-5.20E-11,,
,2.518001,-5.11E-11,,
,2.520001,-5.14E-11,,
,2.522001,-5.26E-11,,
,2.524001,-5.37E-11,,
,2.526001,-5.41E-11,,
,2.528001,-5.35E-11,,
,2.530001,-5.21E-11,,
,2.532001,-5.05E-11,,
,2.534001,-4.94E-11,,
,2.536001,-4.94E-11,,
,2.538001,-5.04E-11,,
,2.540001,-5.17E-11,,
,2.542001,-5.21E-11,,
,2.544001,-5.18E-11,,
,2.546001,-5.05E-11,,
,2.548001,-4.90E-11,,
,2.550001,-4.79E-11,,
,2.552001,-4.76E-11,,
,2.554001,-4.82E-11,,
,2.556001,-4.91E-11,,
,2.558001,-4.97E-11,,
,2.560001,-4.98E-11,,
,2.562001,-4.90E-11,,
,2.564001,-4.75E-11,,
,2.566001,-4.59E-11,,
,2.568001,-4.47E-11,,
,2.570001,-4.48E-11,,
,2.572001,-4.55E-11,,
,2.574001,-4.68E-11,,
,2.576001,-4.70E-11,,
,2.578001,-4.65E-11,,
,2.580001,-4.52E-11,,
,2.582001,-4.37E-11,,
,2.584001,-4.24E-11,,
,2.586001,-4.21E-11,,
,2.588001,-4.30E-11,,
,2.590001,-4.43E-11,,
,2.592001,-4.50E-11,,
,2.594001,-4.50E-11,,
,2.596001,-4.39E-11,,
,2.598001,-4.23E-11,,
,2.600001,-4.05E-11,,
,2.602001,-4.02E-11,,
,2.604001,-4.07E-11,,
,2.606001,-4.21E-11,,
,2.608001,-4.30E-11,,
,2.610001,-4.32E-11,,
,2.612001,-4.25E-11,,
,2.614001,-4.10E-11,,
,2.616001,-3.97E-11,,
,2.618001,-3.89E-11,,
,2.620001,-3.93E-11,,
,2.622001,-4.02E-11,,
,2.624001,-4.13E-11,,
,2.626001,-4.17E-11,,
,2.628001,-4.14E-11,,
,2.630001,-4.03E-11,,
,2.632001,-3.88E-11,,
,2.634001,-3.76E-11,,
,2.636001,-3.74E-11,,
,2.638001,-3.82E-11,,
,2.640001,-3.95E-11,,
,2.642001,-4.02E-11,,
,2.644001,-4.01E-11,,
,2.646001,-3.90E-11,,
,2.648001,-3.74E-11,,
,2.650001,-3.61E-11,,
,2.652001,-3.58E-11,,
,2.654001,-3.67E-11,,
,2.656001,-3.79E-11,,
,2.658001,-3.87E-11,,
,2.660001,-3.88E-11,,
,2.662001,-3.79E-11,,
,2.664001,-3.66E-11,,
,2.666001,-3.51E-11,,
,2.668001,-3.44E-11,,
,2.670001,-3.44E-11,,
,2.672001,-3.53E-11,,
,2.674001,-3.63E-11,,
,2.676001,-3.70E-11,,
,2.678001,-3.64E-11,,
,2.680001,-3.52E-11,,
,2.682001,-3.39E-11,,
,2.684001,-3.30E-11,,
,2.686001,-3.30E-11,,
,2.688001,-3.36E-11,,
,2.690001,-3.49E-11,,
,2.692001,-3.56E-11,,
,2.694001,-3.55E-11,,
,2.696001,-3.42E-11,,
,2.698001,-3.24E-11,,
,2.700001,-3.09E-11,,
,2.702001,-3.05E-11,,
,2.704001,-3.11E-11,,
,2.706001,-3.22E-11,,
,2.708001,-3.31E-11,,
,2.710001,-3.32E-11,,
,2.712001,-3.23E-11,,
,2.714001,-3.09E-11,,
,2.716001,-2.99E-11,,
,2.718001,-2.90E-11,,
,2.720001,-2.91E-11,,
,2.722001,-2.97E-11,,
,2.724001,-3.05E-11,,
,2.726001,-3.12E-11,,
,2.728001,-3.08E-11,,
,2.730001,-3.02E-11,,
,2.732001,-2.89E-11,,
,2.734001,-2.83E-11,,
,2.736001,-2.82E-11,,
,2.738001,-2.90E-11,,
,2.740001,-3.00E-11,,
,2.742001,-3.06E-11,,
,2.744001,-3.05E-11,,
,2.746001,-2.97E-11,,
,2.748001,-2.84E-11,,
,2.750001,-2.73E-11,,
,2.752001,-2.71E-11,,
,2.754001,-2.79E-11,,
,2.756001,-2.91E-11,,
,2.758001,-3.02E-11,,
,2.760001,-3.05E-11,,
,2.762001,-2.98E-11,,
,2.764001,-2.85E-11,,
,2.766001,-2.70E-11,,
,2.768001,-2.64E-11,,
,2.770001,-2.69E-11,,
,2.772001,-2.79E-11,,
,2.774001,-2.92E-11,,
,2.776001,-2.99E-11,,
,2.778001,-2.98E-11,,
,2.780001,-2.87E-11,,
,2.782001,-2.74E-11,,
,2.784001,-2.65E-11,,
,2.786001,-2.68E-11,,
,2.788001,-2.78E-11,,
,2.790001,-2.92E-11,,
,2.792001,-3.00E-11,,
,2.794001,-3.01E-11,,
,2.796001,-2.94E-11,,
,2.798001,-2.85E-11,,
,2.800001,-2.73E-11,,
,2.802001,-2.68E-11,,
,2.804001,-2.74E-11,,
,2.806001,-2.87E-11,,
,2.808001,-2.99E-11,,
,2.810001,-3.02E-11,,
,2.812001,-2.97E-11,,
,2.814001,-2.86E-11,,
,2.816001,-2.73E-11,,
,2.818001,-2.65E-11,,
,2.820001,-2.68E-11,,
,2.822001,-2.78E-11,,
,2.824001,-2.91E-11,,
,2.826001,-2.98E-11,,
,2.828001,-2.94E-11,,
,2.830001,-2.85E-11,,
,2.832001,-2.70E-11,,
,2.834001,-2.59E-11,,
,2.836001,-2.58E-11,,
,2.838001,-2.70E-11,,
,2.840001,-2.84E-11,,
,2.842001,-2.90E-11,,
,2.844001,-2.88E-11,,
,2.846001,-2.77E-11,,
,2.848001,-2.65E-11,,
,2.850001,-2.55E-11,,
,2.852001,-2.55E-11,,
,2.854001,-2.63E-11,,
,2.856001,-2.76E-11,,
,2.858001,-2.86E-11,,
,2.860001,-2.89E-11,,
,2.862001,-2.85E-11,,
,2.864001,-2.73E-11,,
,2.866001,-2.60E-11,,
,2.868001,-2.55E-11,,
,2.870001,-2.60E-11,,
,2.872001,-2.76E-11,,
,2.874001,-2.89E-11,,
,2.876001,-2.95E-11,,
,2.878001,-2.90E-11,,
,2.880001,-2.80E-11,,
,2.882001,-2.70E-11,,
,2.884001,-2.62E-11,,
,2.886001,-2.63E-11,,
,2.888001,-2.71E-11,,
,2.890001,-2.85E-11,,
,2.892001,-2.94E-11,,
,2.894001,-2.99E-11,,
,2.896001,-2.91E-11,,
,2.898001,-2.79E-11,,
,2.900001,-2.69E-11,,
,2.902001,-2.66E-11,,
,2.904001,-2.75E-11,,
,2.906001,-2.88E-11,,
,2.908001,-2.99E-11,,
,2.910001,-3.02E-11,,
,2.912001,-2.95E-11,,
,2.914001,-2.84E-11,,
,2.916001,-2.72E-11,,
,2.918001,-2.68E-11,,
,2.920001,-2.73E-11,,
,2.922001,-2.84E-11,,
,2.924001,-2.93E-11,,
,2.926001,-3.01E-11,,
,2.928001,-3.00E-11,,
,2.930001,-2.94E-11,,
,2.932001,-2.82E-11,,
,2.934001,-2.74E-11,,
,2.936001,-2.73E-11,,
,2.938001,-2.84E-11,,
,2.940001,-2.94E-11,,
,2.942001,-3.03E-11,,
,2.944001,-3.03E-11,,
,2.946001,-2.95E-11,,
,2.948001,-2.84E-11,,
,2.950001,-2.71E-11,,
,2.952001,-2.68E-11,,
,2.954001,-2.74E-11,,
,2.956001,-2.86E-11,,
,2.958001,-2.98E-11,,
,2.960001,-3.01E-11,,
,2.962001,-2.97E-11,,
,2.964001,-2.80E-11,,
,2.966001,-2.66E-11,,
,2.968001,-2.60E-11,,
,2.970001,-2.64E-11,,
,2.972001,-2.75E-11,,
,2.974001,-2.86E-11,,
,2.976001,-2.91E-11,,
,2.978001,-2.88E-11,,
,2.980001,-2.75E-11,,
,2.982001,-2.60E-11,,
,2.984001,-2.48E-11,,
,2.986001,-2.47E-11,,
,2.988001,-2.55E-11,,
,2.990001,-2.64E-11,,
,2.992001,-2.70E-11,,
,2.994001,-2.66E-11,,
,2.996001,-2.57E-11,,
,2.998001,-2.40E-11,,
,3.000001,-2.29E-11,,
,3.002001,-2.21E-11,,
,3.004001,-2.28E-11,,
,3.006001,-2.35E-11,,
,3.008001,-2.43E-11,,
,3.010001,-2.42E-11,,
,3.012001,-2.35E-11,,
,3.014001,-2.27E-11,,
,3.016001,-2.13E-11,,
,3.018001,-2.06E-11,,
,3.020001,-2.09E-11,,
,3.022001,-2.22E-11,,
,3.024001,-2.34E-11,,
,3.026001,-2.39E-11,,
,3.028001,-2.35E-11,,
,3.030001,-2.24E-11,,
,3.032001,-2.11E-11,,
,3.034001,-1.98E-11,,
,3.036001,-1.98E-11,,
,3.038001,-2.05E-11,,
,3.040001,-2.21E-11,,
,3.042001,-2.32E-11,,
,3.044001,-2.33E-11,,
,3.046001,-2.25E-11,,
,3.048001,-2.09E-11,,
,3.050001,-1.96E-11,,
,3.052001,-1.90E-11,,
,3.054001,-1.98E-11,,
,3.056001,-2.12E-11,,
,3.058001,-2.27E-11,,
,3.060001,-2.30E-11,,
,3.062001,-2.25E-11,,
,3.064001,-2.12E-11,,
,3.066001,-2.01E-11,,
,3.068001,-1.98E-11,,
,3.070001,-2.03E-11,,
,3.072001,-2.16E-11,,
,3.074001,-2.30E-11,,
,3.076001,-2.39E-11,,
,3.078001,-2.39E-11,,
,3.080001,-2.30E-11,,
,3.082001,-2.18E-11,,
,3.084001,-2.12E-11,,
,3.086001,-2.13E-11,,
,3.088001,-2.25E-11,,
,3.090001,-2.40E-11,,
,3.092001,-2.53E-11,,
,3.094001,-2.56E-11,,
,3.096001,-2.50E-11,,
,3.098001,-2.40E-11,,
,3.100001,-2.32E-11,,
,3.102001,-2.31E-11,,
,3.104001,-2.40E-11,,
,3.106001,-2.53E-11,,
,3.108001,-2.65E-11,,
,3.110001,-2.73E-11,,
,3.112001,-2.71E-11,,
,3.114001,-2.62E-11,,
,3.116001,-2.51E-11,,
,3.118001,-2.47E-11,,
,3.120001,-2.54E-11,,
,3.122001,-2.71E-11,,
,3.124001,-2.87E-11,,
,3.126001,-2.94E-11,,
,3.128001,-2.93E-11,,
,3.130001,-2.87E-11,,
,3.132001,-2.76E-11,,
,3.134001,-2.66E-11,,
,3.136001,-2.68E-11,,
,3.138001,-2.80E-11,,
,3.140001,-2.93E-11,,
,3.142001,-3.01E-11,,
,3.144001,-3.02E-11,,
,3.146001,-2.94E-11,,
,3.148001,-2.84E-11,,
,3.150001,-2.71E-11,,
,3.152001,-2.69E-11,,
,3.154001,-2.76E-11,,
,3.156001,-2.92E-11,,
,3.158001,-3.05E-11,,
,3.160001,-3.08E-11,,
,3.162001,-3.04E-11,,
,3.164001,-2.95E-11,,
,3.166001,-2.84E-11,,
,3.168001,-2.75E-11,,
,3.170001,-2.76E-11,,
,3.172001,-2.87E-11,,
,3.174001,-2.99E-11,,
,3.176001,-3.03E-11,,
,3.178001,-3.02E-11,,
,3.180001,-2.92E-11,,
,3.182001,-2.82E-11,,
,3.184001,-2.70E-11,,
,3.186001,-2.72E-11,,
,3.188001,-2.82E-11,,
,3.190001,-2.97E-11,,
,3.192001,-3.04E-11,,
,3.194001,-3.05E-11,,
,3.196001,-2.98E-11,,
,3.198001,-2.85E-11,,
,3.200001,-2.72E-11,,
,3.202001,-2.68E-11,,
,3.204001,-2.75E-11,,
,3.206001,-2.89E-11,,
,3.208001,-3.01E-11,,
,3.210001,-3.04E-11,,
,3.212001,-2.99E-11,,
,3.214001,-2.85E-11,,
,3.216001,-2.72E-11,,
,3.218001,-2.63E-11,,
,3.220001,-2.70E-11,,
,3.222001,-2.80E-11,,
,3.224001,-2.94E-11,,
,3.226001,-3.01E-11,,
,3.228001,-2.99E-11,,
,3.230001,-2.90E-11,,
,3.232001,-2.78E-11,,
,3.234001,-2.71E-11,,
,3.236001,-2.71E-11,,
,3.238001,-2.79E-11,,
,3.240001,-2.93E-11,,
,3.242001,-3.03E-11,,
,3.244001,-3.04E-11,,
,3.246001,-2.98E-11,,
,3.248001,-2.85E-11,,
,3.250001,-2.74E-11,,
,3.252001,-2.69E-11,,
,3.254001,-2.77E-11,,
,3.256001,-2.91E-11,,
,3.258001,-3.07E-11,,
,3.260001,-3.13E-11,,
,3.262001,-3.12E-11,,
,3.264001,-3.00E-11,,
,3.266001,-2.88E-11,,
,3.268001,-2.83E-11,,
,3.270001,-2.88E-11,,
,3.272001,-3.01E-11,,
,3.274001,-3.14E-11,,
,3.276001,-3.22E-11,,
,3.278001,-3.23E-11,,
,3.280001,-3.16E-11,,
,3.282001,-3.06E-11,,
,3.284001,-3.01E-11,,
,3.286001,-3.05E-11,,
,3.288001,-3.17E-11,,
,3.290001,-3.33E-11,,
,3.292001,-3.44E-11,,
,3.294001,-3.48E-11,,
,3.296001,-3.44E-11,,
,3.298001,-3.35E-11,,
,3.300001,-3.28E-11,,
,3.302001,-3.24E-11,,
,3.304001,-3.32E-11,,
,3.306001,-3.45E-11,,
,3.308001,-3.58E-11,,
,3.310001,-3.65E-11,,
,3.312001,-3.63E-11,,
,3.314001,-3.56E-11,,
,3.316001,-3.44E-11,,
,3.318001,-3.38E-11,,
,3.320001,-3.45E-11,,
,3.322001,-3.60E-11,,
,3.324001,-3.76E-11,,
,3.326001,-3.85E-11,,
,3.328001,-3.85E-11,,
,3.330001,-3.77E-11,,
,3.332001,-3.66E-11,,
,3.334001,-3.60E-11,,
,3.336001,-3.62E-11,,
,3.338001,-3.73E-11,,
,3.340001,-3.86E-11,,
,3.342001,-3.93E-11,,
,3.344001,-3.92E-11,,
,3.346001,-3.85E-11,,
,3.348001,-3.76E-11,,
,3.350001,-3.70E-11,,
,3.352001,-3.68E-11,,
,3.354001,-3.77E-11,,
,3.356001,-3.93E-11,,
,3.358001,-4.07E-11,,
,3.360001,-4.13E-11,,
,3.362001,-4.06E-11,,
,3.364001,-3.95E-11,,
,3.366001,-3.85E-11,,
,3.368001,-3.80E-11,,
,3.370001,-3.86E-11,,
,3.372001,-3.97E-11,,
,3.374001,-4.10E-11,,
,3.376001,-4.19E-11,,
,3.378001,-4.17E-11,,
,3.380001,-4.05E-11,,
,3.382001,-3.89E-11,,
,3.384001,-3.78E-11,,
,3.386001,-3.80E-11,,
,3.388001,-3.89E-11,,
,3.390001,-4.04E-11,,
,3.392001,-4.15E-11,,
,3.394001,-4.19E-11,,
,3.396001,-4.15E-11,,
,3.398001,-4.04E-11,,
,3.400001,-3.95E-11,,
,3.402001,-3.93E-11,,
,3.404001,-4.03E-11,,
,3.406001,-4.19E-11,,
,3.408001,-4.32E-11,,
,3.410001,-4.39E-11,,
,3.412001,-4.36E-11,,
,3.414001,-4.26E-11,,
,3.416001,-4.15E-11,,
,3.418001,-4.08E-11,,
,3.420001,-4.13E-11,,
,3.422001,-4.22E-11,,
,3.424001,-4.37E-11,,
,3.426001,-4.46E-11,,
,3.428001,-4.46E-11,,
,3.430001,-4.36E-11,,
,3.432001,-4.21E-11,,
,3.434001,-4.14E-11,,
,3.436001,-4.14E-11,,
,3.438001,-4.26E-11,,
,3.440001,-4.43E-11,,
,3.442001,-4.54E-11,,
,3.444001,-4.57E-11,,
,3.446001,-4.50E-11,,
,3.448001,-4.41E-11,,
,3.450001,-4.33E-11,,
,3.452001,-4.31E-11,,
,3.454001,-4.38E-11,,
,3.456001,-4.53E-11,,
,3.458001,-4.67E-11,,
,3.460001,-4.75E-11,,
,3.462001,-4.76E-11,,
,3.464001,-4.67E-11,,
,3.466001,-4.58E-11,,
,3.468001,-4.51E-11,,
,3.470001,-4.57E-11,,
,3.472001,-4.67E-11,,
,3.474001,-4.81E-11,,
,3.476001,-4.91E-11,,
,3.478001,-4.93E-11,,
,3.480001,-4.87E-11,,
,3.482001,-4.76E-11,,
,3.484001,-4.70E-11,,
,3.486001,-4.73E-11,,
,3.488001,-4.84E-11,,
,3.490001,-4.99E-11,,
,3.492001,-5.12E-11,,
,3.494001,-5.12E-11,,
,3.496001,-5.05E-11,,
,3.498001,-4.91E-11,,
,3.500001,-4.80E-11,,
,3.502001,-4.77E-11,,
,3.504001,-4.84E-11,,
,3.506001,-4.99E-11,,
,3.508001,-5.11E-11,,
,3.510001,-5.14E-11,,
,3.512001,-5.11E-11,,
,3.514001,-4.98E-11,,
,3.516001,-4.88E-11,,
,3.518001,-4.80E-11,,
,3.520001,-4.87E-11,,
,3.522001,-4.98E-11,,
,3.524001,-5.12E-11,,
,3.526001,-5.17E-11,,
,3.528001,-5.14E-11,,
,3.530001,-5.05E-11,,
,3.532001,-4.93E-11,,
,3.534001,-4.83E-11,,
,3.536001,-4.81E-11,,
,3.538001,-4.91E-11,,
,3.540001,-5.04E-11,,
,3.542001,-5.13E-11,,
,3.544001,-5.13E-11,,
,3.546001,-5.06E-11,,
,3.548001,-4.94E-11,,
,3.550001,-4.82E-11,,
,3.552001,-4.78E-11,,
,3.554001,-4.84E-11,,
,3.556001,-4.97E-11,,
,3.558001,-5.08E-11,,
,3.560001,-5.10E-11,,
,3.562001,-5.07E-11,,
,3.564001,-4.96E-11,,
,3.566001,-4.84E-11,,
,3.568001,-4.74E-11,,
,3.570001,-4.77E-11,,
,3.572001,-4.84E-11,,
,3.574001,-4.96E-11,,
,3.576001,-4.99E-11,,
,3.578001,-4.97E-11,,
,3.580001,-4.88E-11,,
,3.582001,-4.74E-11,,
,3.584001,-4.65E-11,,
,3.586001,-4.62E-11,,
,3.588001,-4.72E-11,,
,3.590001,-4.82E-11,,
,3.592001,-4.93E-11,,
,3.594001,-4.92E-11,,
,3.596001,-4.82E-11,,
,3.598001,-4.67E-11,,
,3.600001,-4.52E-11,,
,3.602001,-4.48E-11,,
,3.604001,-4.52E-11,,
,3.606001,-4.63E-11,,
,3.608001,-4.72E-11,,
,3.610001,-4.74E-11,,
,3.612001,-4.69E-11,,
,3.614001,-4.59E-11,,
,3.616001,-4.45E-11,,
,3.618001,-4.35E-11,,
,3.620001,-4.33E-11,,
,3.622001,-4.40E-11,,
,3.624001,-4.51E-11,,
,3.626001,-4.58E-11,,
,3.628001,-4.54E-11,,
,3.630001,-4.45E-11,,
,3.632001,-4.29E-11,,
,3.634001,-4.15E-11,,
,3.636001,-4.08E-11,,
,3.638001,-4.15E-11,,
,3.640001,-4.29E-11,,
,3.642001,-4.37E-11,,
,3.644001,-4.38E-11,,
,3.646001,-4.28E-11,,
,3.648001,-4.13E-11,,
,3.650001,-3.97E-11,,
,3.652001,-3.92E-11,,
,3.654001,-3.99E-11,,
,3.656001,-4.10E-11,,
,3.658001,-4.22E-11,,
,3.660001,-4.25E-11,,
,3.662001,-4.19E-11,,
,3.664001,-4.07E-11,,
,3.666001,-3.93E-11,,
,3.668001,-3.87E-11,,
,3.670001,-3.88E-11,,
,3.672001,-3.97E-11,,
,3.674001,-4.09E-11,,
,3.676001,-4.15E-11,,
,3.678001,-4.13E-11,,
,3.680001,-4.00E-11,,
,3.682001,-3.87E-11,,
,3.684001,-3.74E-11,,
,3.686001,-3.71E-11,,
,3.688001,-3.80E-11,,
,3.690001,-3.95E-11,,
,3.692001,-4.06E-11,,
,3.694001,-4.04E-11,,
,3.696001,-3.94E-11,,
,3.698001,-3.84E-11,,
,3.700001,-3.74E-11,,
,3.702001,-3.72E-11,,
,3.704001,-3.76E-11,,
,3.706001,-3.89E-11,,
,3.708001,-4.00E-11,,
,3.710001,-4.04E-11,,
,3.712001,-3.95E-11,,
,3.714001,-3.84E-11,,
,3.716001,-3.72E-11,,
,3.718001,-3.67E-11,,
,3.720001,-3.71E-11,,
,3.722001,-3.84E-11,,
,3.724001,-3.99E-11,,
,3.726001,-4.08E-11,,
,3.728001,-4.07E-11,,
,3.730001,-3.97E-11,,
,3.732001,-3.82E-11,,
,3.734001,-3.71E-11,,
,3.736001,-3.68E-11,,
,3.738001,-3.76E-11,,
,3.740001,-3.91E-11,,
,3.742001,-3.97E-11,,
,3.744001,-3.97E-11,,
,3.746001,-3.88E-11,,
,3.748001,-3.76E-11,,
,3.750001,-3.65E-11,,
,3.752001,-3.60E-11,,
,3.754001,-3.64E-11,,
,3.756001,-3.73E-11,,
,3.758001,-3.82E-11,,
,3.760001,-3.85E-11,,
,3.762001,-3.80E-11,,
,3.764001,-3.66E-11,,
,3.766001,-3.52E-11,,
,3.768001,-3.42E-11,,
,3.770001,-3.43E-11,,
,3.772001,-3.50E-11,,
,3.774001,-3.63E-11,,
,3.776001,-3.65E-11,,
,3.778001,-3.60E-11,,
,3.780001,-3.42E-11,,
,3.782001,-3.23E-11,,
,3.784001,-3.09E-11,,
,3.786001,-3.03E-11,,
,3.788001,-3.08E-11,,
,3.790001,-3.13E-11,,
,3.792001,-3.20E-11,,
,3.794001,-3.15E-11,,
,3.796001,-3.05E-11,,
,3.798001,-2.85E-11,,
,3.800001,-2.66E-11,,
,3.802001,-2.54E-11,,
,3.804001,-2.56E-11,,
,3.806001,-2.61E-11,,
,3.808001,-2.65E-11,,
,3.810001,-2.58E-11,,
,3.812001,-2.46E-11,,
,3.814001,-2.26E-11,,
,3.816001,-2.04E-11,,
,3.818001,-1.86E-11,,
,3.820001,-1.80E-11,,
,3.822001,-1.83E-11,,
,3.824001,-1.88E-11,,
,3.826001,-1.84E-11,,
,3.828001,-1.72E-11,,
,3.830001,-1.52E-11,,
,3.832001,-1.33E-11,,
,3.834001,-1.15E-11,,
,3.836001,-1.04E-11,,
,3.838001,-1.01E-11,,
,3.840001,-1.04E-11,,
,3.842001,-1.05E-11,,
,3.844001,-9.69E-12,,
,3.846001,-8.18E-12,,
,3.848001,-5.82E-12,,
,3.850001,-3.78E-12,,
,3.852001,-2.28E-12,,
,3.854001,-2.28E-12,,
,3.856001,-2.82E-12,,
,3.858001,-3.35E-12,,
,3.860001,-2.92E-12,,
,3.862001,-1.85E-12,,
,3.864001,1.89E-13,,
,3.866001,2.12E-12,,
,3.868001,3.73E-12,,
,3.870001,4.16E-12,,
,3.872001,3.73E-12,,
,3.874001,3.20E-12,,
,3.876001,3.20E-12,,
,3.878001,3.95E-12,,
,3.880001,5.34E-12,,
,3.882001,7.27E-12,,
,3.884001,8.89E-12,,
,3.886001,9.64E-12,,
,3.888001,9.31E-12,,
,3.890001,8.78E-12,,
,3.892001,8.46E-12,,
,3.894001,8.89E-12,,
,3.896001,1.01E-11,,
,3.898001,1.17E-11,,
,3.900001,1.33E-11,,
,3.902001,1.41E-11,,
,3.904001,1.40E-11,,
,3.906001,1.33E-11,,
,3.908001,1.24E-11,,
,3.910001,1.24E-11,,
,3.912001,1.31E-11,,
,3.914001,1.47E-11,,
,3.916001,1.62E-11,,
,3.918001,1.74E-11,,
,3.920001,1.73E-11,,
,3.922001,1.64E-11,,
,3.924001,1.54E-11,,
,3.926001,1.50E-11,,
,3.928001,1.55E-11,,
,3.930001,1.64E-11,,
,3.932001,1.81E-11,,
,3.934001,1.92E-11,,
,3.936001,1.96E-11,,
,3.938001,1.85E-11,,
,3.940001,1.75E-11,,
,3.942001,1.66E-11,,
,3.944001,1.68E-11,,
,3.946001,1.77E-11,,
,3.948001,1.92E-11,,
,3.950001,2.05E-11,,
,3.952001,2.11E-11,,
,3.954001,2.07E-11,,
,3.956001,1.94E-11,,
,3.958001,1.82E-11,,
,3.960001,1.77E-11,,
,3.962001,1.84E-11,,
,3.964001,1.96E-11,,
,3.966001,2.10E-11,,
,3.968001,2.19E-11,,
,3.970001,2.16E-11,,
,3.972001,2.07E-11,,
,3.974001,1.93E-11,,
,3.976001,1.87E-11,,
,3.978001,1.88E-11,,
,3.980001,1.97E-11,,
,3.982001,2.11E-11,,
,3.984001,2.22E-11,,
,3.986001,2.23E-11,,
,3.988001,2.13E-11,,
,3.990001,1.97E-11,,
,3.992001,1.85E-11,,
,3.994001,1.82E-11,,
,3.996001,1.89E-11,,
,3.998001,2.01E-11,,
,4.000001,2.11E-11,,
,4.002001,2.16E-11,,
,4.004001,2.07E-11,,
,4.006001,1.94E-11,,
,4.008001,1.80E-11,,
,4.010001,1.74E-11,,
,4.012001,1.75E-11,,
,4.014001,1.82E-11,,
,4.016001,1.95E-11,,
,4.018001,2.01E-11,,
,4.020001,1.96E-11,,
,4.022001,1.81E-11,,
,4.024001,1.65E-11,,
,4.026001,1.54E-11,,
,4.028001,1.52E-11,,
,4.030001,1.58E-11,,
,4.032001,1.67E-11,,
,4.034001,1.74E-11,,
,4.036001,1.74E-11,,
,4.038001,1.65E-11,,
,4.040001,1.51E-11,,
,4.042001,1.38E-11,,
,4.044001,1.31E-11,,
,4.046001,1.32E-11,,
,4.048001,1.39E-11,,
,4.050001,1.47E-11,,
,4.052001,1.46E-11,,
,4.054001,1.33E-11,,
,4.056001,1.14E-11,,
,4.058001,9.74E-12,,
,4.060001,8.89E-12,,
,4.062001,8.78E-12,,
,4.064001,9.31E-12,,
,4.066001,1.01E-11,,
,4.068001,1.04E-11,,
,4.070001,9.64E-12,,
,4.072001,7.92E-12,,
,4.074001,6.09E-12,,
,4.076001,4.91E-12,,
,4.078001,4.48E-12,,
,4.080001,4.70E-12,,
,4.082001,5.24E-12,,
,4.084001,5.77E-12,,
,4.086001,5.56E-12,,
,4.088001,4.38E-12,,
,4.090001,2.66E-12,,
,4.092001,9.41E-13,,
,4.094001,1.89E-13,,
,4.096001,2.97E-13,,
,4.098001,1.05E-12,,
,4.100001,1.59E-12,,
,4.102001,1.48E-12,,
,4.104001,4.04E-13,,
,4.106001,-1.42E-12,,
,4.108001,-3.14E-12,,
,4.110001,-3.89E-12,,
,4.112001,-3.57E-12,,
,4.114001,-2.71E-12,,
,4.116001,-2.17E-12,,
,4.118001,-2.07E-12,,
,4.120001,-3.03E-12,,
,4.122001,-4.43E-12,,
,4.124001,-6.25E-12,,
,4.126001,-7.43E-12,,
,4.128001,-7.97E-12,,
,4.130001,-7.54E-12,,
,4.132001,-7.00E-12,,
,4.134001,-6.36E-12,,
,4.136001,-6.68E-12,,
,4.138001,-7.65E-12,,
,4.140001,-9.15E-12,,
,4.142001,-1.03E-11,,
,4.144001,-1.07E-11,,
,4.146001,-1.05E-11,,
,4.148001,-9.69E-12,,
,4.150001,-9.15E-12,,
,4.152001,-8.94E-12,,
,4.154001,-1.00E-11,,
,4.156001,-1.15E-11,,
,4.158001,-1.30E-11,,
,4.160001,-1.37E-11,,
,4.162001,-1.36E-11,,
,4.164001,-1.29E-11,,
,4.166001,-1.19E-11,,
,4.168001,-1.15E-11,,
,4.170001,-1.20E-11,,
,4.172001,-1.37E-11,,
,4.174001,-1.52E-11,,
,4.176001,-1.60E-11,,
,4.178001,-1.61E-11,,
,4.180001,-1.55E-11,,
,4.182001,-1.46E-11,,
,4.184001,-1.40E-11,,
,4.186001,-1.41E-11,,
,4.188001,-1.54E-11,,
,4.190001,-1.69E-11,,
,4.192001,-1.83E-11,,
,4.194001,-1.86E-11,,
,4.196001,-1.82E-11,,
,4.198001,-1.71E-11,,
,4.200001,-1.61E-11,,
,4.202001,-1.60E-11,,
,4.204001,-1.69E-11,,
,4.206001,-1.84E-11,,
,4.208001,-1.97E-11,,
,4.210001,-2.04E-11,,
,4.212001,-2.03E-11,,
,4.214001,-1.96E-11,,
,4.216001,-1.86E-11,,
,4.218001,-1.81E-11,,
,4.220001,-1.86E-11,,
,4.222001,-1.99E-11,,
,4.224001,-2.13E-11,,
,4.226001,-2.19E-11,,
,4.228001,-2.22E-11,,
,4.230001,-2.16E-11,,
,4.232001,-2.07E-11,,
,4.234001,-2.02E-11,,
,4.236001,-2.03E-11,,
,4.238001,-2.15E-11,,
,4.240001,-2.27E-11,,
,4.242001,-2.38E-11,,
,4.244001,-2.38E-11,,
,4.246001,-2.31E-11,,
,4.248001,-2.20E-11,,
,4.250001,-2.14E-11,,
,4.252001,-2.13E-11,,
,4.254001,-2.21E-11,,
,4.256001,-2.35E-11,,
,4.258001,-2.50E-11,,
,4.260001,-2.57E-11,,
,4.262001,-2.56E-11,,
,4.264001,-2.44E-11,,
,4.266001,-2.32E-11,,
,4.268001,-2.24E-11,,
,4.270001,-2.29E-11,,
,4.272001,-2.43E-11,,
,4.274001,-2.59E-11,,
,4.276001,-2.69E-11,,
,4.278001,-2.71E-11,,
,4.280001,-2.63E-11,,
,4.282001,-2.50E-11,,
,4.284001,-2.41E-11,,
,4.286001,-2.41E-11,,
,4.288001,-2.49E-11,,
,4.290001,-2.61E-11,,
,4.292001,-2.71E-11,,
,4.294001,-2.74E-11,,
,4.296001,-2.69E-11,,
,4.298001,-2.57E-11,,
,4.300001,-2.45E-11,,
,4.302001,-2.42E-11,,
,4.304001,-2.47E-11,,
,4.306001,-2.60E-11,,
,4.308001,-2.70E-11,,
,4.310001,-2.76E-11,,
,4.312001,-2.73E-11,,
,4.314001,-2.64E-11,,
,4.316001,-2.54E-11,,
,4.318001,-2.48E-11,,
,4.320001,-2.51E-11,,
,4.322001,-2.64E-11,,
,4.324001,-2.78E-11,,
,4.326001,-2.90E-11,,
,4.328001,-2.89E-11,,
,4.330001,-2.80E-11,,
,4.332001,-2.68E-11,,
,4.334001,-2.58E-11,,
,4.336001,-2.58E-11,,
,4.338001,-2.68E-11,,
,4.340001,-2.83E-11,,
,4.342001,-2.94E-11,,
,4.344001,-2.95E-11,,
,4.346001,-2.91E-11,,
,4.348001,-2.78E-11,,
,4.350001,-2.68E-11,,
,4.352001,-2.59E-11,,
,4.354001,-2.64E-11,,
,4.356001,-2.77E-11,,
,4.358001,-2.89E-11,,
,4.360001,-2.92E-11,,
,4.362001,-2.88E-11,,
,4.364001,-2.79E-11,,
,4.366001,-2.66E-11,,
,4.368001,-2.59E-11,,
,4.370001,-2.58E-11,,
,4.372001,-2.69E-11,,
,4.374001,-2.78E-11,,
,4.376001,-2.84E-11,,
,4.378001,-2.80E-11,,
,4.380001,-2.70E-11,,
,4.382001,-2.58E-11,,
,4.384001,-2.48E-11,,
,4.386001,-2.46E-11,,
,4.388001,-2.51E-11,,
,4.390001,-2.61E-11,,
,4.392001,-2.71E-11,,
,4.394001,-2.73E-11,,
,4.396001,-2.66E-11,,
,4.398001,-2.53E-11,,
,4.400001,-2.41E-11,,
,4.402001,-2.36E-11,,
,4.404001,-2.42E-11,,
,4.406001,-2.54E-11,,
,4.408001,-2.62E-11,,
,4.410001,-2.64E-11,,
,4.412001,-2.56E-11,,
,4.414001,-2.45E-11,,
,4.416001,-2.30E-11,,
,4.418001,-2.21E-11,,
,4.420001,-2.20E-11,,
,4.422001,-2.32E-11,,
,4.424001,-2.45E-11,,
,4.426001,-2.51E-11,,
,4.428001,-2.47E-11,,
,4.430001,-2.40E-11,,
,4.432001,-2.27E-11,,
,4.434001,-2.17E-11,,
,4.436001,-2.10E-11,,
,4.438001,-2.18E-11,,
,4.440001,-2.29E-11,,
,4.442001,-2.40E-11,,
,4.444001,-2.41E-11,,
,4.446001,-2.33E-11,,
,4.448001,-2.21E-11,,
,4.450001,-2.06E-11,,
,4.452001,-2.02E-11,,
,4.454001,-2.07E-11,,
,4.456001,-2.21E-11,,
,4.458001,-2.33E-11,,
,4.460001,-2.36E-11,,
,4.462001,-2.31E-11,,
,4.464001,-2.17E-11,,
,4.466001,-2.02E-11,,
,4.468001,-1.92E-11,,
,4.470001,-1.93E-11,,
,4.472001,-2.05E-11,,
,4.474001,-2.19E-11,,
,4.476001,-2.28E-11,,
,4.478001,-2.25E-11,,
,4.480001,-2.13E-11,,
,4.482001,-1.99E-11,,
,4.484001,-1.89E-11,,
,4.486001,-1.88E-11,,
,4.488001,-1.97E-11,,
,4.490001,-2.10E-11,,
,4.492001,-2.20E-11,,
,4.494001,-2.24E-11,,
,4.496001,-2.16E-11,,
,4.498001,-2.06E-11,,
,4.500001,-1.95E-11,,
,4.502001,-1.90E-11,,
,4.504001,-1.93E-11,,
,4.506001,-2.05E-11,,
,4.508001,-2.18E-11,,
,4.510001,-2.22E-11,,
,4.512001,-2.19E-11,,
,4.514001,-2.07E-11,,
,4.516001,-1.96E-11,,
,4.518001,-1.85E-11,,
,4.520001,-1.86E-11,,
,4.522001,-1.95E-11,,
,4.524001,-2.07E-11,,
,4.526001,-2.14E-11,,
,4.528001,-2.13E-11,,
,4.530001,-2.02E-11,,
,4.532001,-1.89E-11,,
,4.534001,-1.77E-11,,
,4.536001,-1.78E-11,,
,4.538001,-1.88E-11,,
,4.540001,-2.03E-11,,
,4.542001,-2.13E-11,,
,4.544001,-2.17E-11,,
,4.546001,-2.13E-11,,
,4.548001,-2.02E-11,,
,4.550001,-1.89E-11,,
,4.552001,-1.83E-11,,
,4.554001,-1.87E-11,,
,4.556001,-1.98E-11,,
,4.558001,-2.09E-11,,
,4.560001,-2.17E-11,,
,4.562001,-2.16E-11,,
,4.564001,-2.07E-11,,
,4.566001,-1.95E-11,,
,4.568001,-1.88E-11,,
,4.570001,-1.91E-11,,
,4.572001,-2.02E-11,,
,4.574001,-2.14E-11,,
,4.576001,-2.21E-11,,
,4.578001,-2.20E-11,,
,4.580001,-2.13E-11,,
,4.582001,-2.00E-11,,
,4.584001,-1.90E-11,,
,4.586001,-1.88E-11,,
,4.588001,-1.97E-11,,
,4.590001,-2.09E-11,,
,4.592001,-2.18E-11,,
,4.594001,-2.20E-11,,
,4.596001,-2.15E-11,,
,4.598001,-2.03E-11,,
,4.600001,-1.90E-11,,
,4.602001,-1.85E-11,,
,4.604001,-1.91E-11,,
,4.606001,-2.04E-11,,
,4.608001,-2.15E-11,,
,4.610001,-2.19E-11,,
,4.612001,-2.15E-11,,
,4.614001,-2.04E-11,,
,4.616001,-1.92E-11,,
,4.618001,-1.84E-11,,
,4.620001,-1.88E-11,,
,4.622001,-1.98E-11,,
,4.624001,-2.12E-11,,
,4.626001,-2.21E-11,,
,4.628001,-2.19E-11,,
,4.630001,-2.12E-11,,
,4.632001,-1.97E-11,,
,4.634001,-1.89E-11,,
,4.636001,-1.88E-11,,
,4.638001,-1.96E-11,,
,4.640001,-2.09E-11,,
,4.642001,-2.18E-11,,
,4.644001,-2.22E-11,,
,4.646001,-2.17E-11,,
,4.648001,-2.06E-11,,
,4.650001,-1.92E-11,,
,4.652001,-1.87E-11,,
,4.654001,-1.93E-11,,
,4.656001,-2.07E-11,,
,4.658001,-2.18E-11,,
,4.660001,-2.21E-11,,
,4.662001,-2.20E-11,,
,4.664001,-2.12E-11,,
,4.666001,-2.01E-11,,
,4.668001,-1.92E-11,,
,4.670001,-1.96E-11,,
,4.672001,-2.06E-11,,
,4.674001,-2.19E-11,,
,4.676001,-2.28E-11,,
,4.678001,-2.29E-11,,
,4.680001,-2.24E-11,,
,4.682001,-2.12E-11,,
,4.684001,-1.99E-11,,
,4.686001,-1.97E-11,,
,4.688001,-2.05E-11,,
,4.690001,-2.21E-11,,
,4.692001,-2.31E-11,,
,4.694001,-2.34E-11,,
,4.696001,-2.27E-11,,
,4.698001,-2.17E-11,,
,4.700001,-2.05E-11,,
,4.702001,-2.03E-11,,
,4.704001,-2.07E-11,,
,4.706001,-2.18E-11,,
,4.708001,-2.29E-11,,
,4.710001,-2.31E-11,,
,4.712001,-2.26E-11,,
,4.714001,-2.13E-11,,
,4.716001,-2.03E-11,,
,4.718001,-1.97E-11,,
,4.720001,-2.03E-11,,
,4.722001,-2.13E-11,,
,4.724001,-2.27E-11,,
,4.726001,-2.33E-11,,
,4.728001,-2.35E-11,,
,4.730001,-2.28E-11,,
,4.732001,-2.16E-11,,
,4.734001,-2.05E-11,,
,4.736001,-2.06E-11,,
,4.738001,-2.18E-11,,
,4.740001,-2.32E-11,,
,4.742001,-2.42E-11,,
,4.744001,-2.43E-11,,
,4.746001,-2.39E-11,,
,4.748001,-2.27E-11,,
,4.750001,-2.14E-11,,
,4.752001,-2.06E-11,,
,4.754001,-2.12E-11,,
,4.756001,-2.26E-11,,
,4.758001,-2.39E-11,,
,4.760001,-2.47E-11,,
,4.762001,-2.44E-11,,
,4.764001,-2.35E-11,,
,4.766001,-2.20E-11,,
,4.768001,-2.13E-11,,
,4.770001,-2.15E-11,,
,4.772001,-2.26E-11,,
,4.774001,-2.39E-11,,
,4.776001,-2.46E-11,,
,4.778001,-2.45E-11,,
,4.780001,-2.38E-11,,
,4.782001,-2.27E-11,,
,4.784001,-2.18E-11,,
,4.786001,-2.18E-11,,
,4.788001,-2.25E-11,,
,4.790001,-2.38E-11,,
,4.792001,-2.47E-11,,
,4.794001,-2.48E-11,,
,4.796001,-2.43E-11,,
,4.798001,-2.29E-11,,
,4.800001,-2.16E-11,,
,4.802001,-2.10E-11,,
,4.804001,-2.13E-11,,
,4.806001,-2.26E-11,,
,4.808001,-2.36E-11,,
,4.810001,-2.41E-11,,
,4.812001,-2.38E-11,,
,4.814001,-2.25E-11,,
,4.816001,-2.13E-11,,
,4.818001,-2.02E-11,,
,4.820001,-2.03E-11,,
,4.822001,-2.12E-11,,
,4.824001,-2.26E-11,,
,4.826001,-2.34E-11,,
,4.828001,-2.34E-11,,
,4.830001,-2.29E-11,,
,4.832001,-2.18E-11,,
,4.834001,-2.07E-11,,
,4.836001,-2.01E-11,,
,4.838001,-2.04E-11,,
,4.840001,-2.15E-11,,
,4.842001,-2.24E-11,,
,4.844001,-2.25E-11,,
,4.846001,-2.15E-11,,
,4.848001,-2.00E-11,,
,4.850001,-1.87E-11,,
,4.852001,-1.84E-11,,
,4.854001,-1.88E-11,,
,4.856001,-2.01E-11,,
,4.858001,-2.13E-11,,
,4.860001,-2.21E-11,,
,4.862001,-2.18E-11,,
,4.864001,-2.09E-11,,
,4.866001,-1.95E-11,,
,4.868001,-1.87E-11,,
,4.870001,-1.88E-11,,
,4.872001,-2.00E-11,,
,4.874001,-2.13E-11,,
,4.876001,-2.24E-11,,
,4.878001,-2.22E-11,,
,4.880001,-2.14E-11,,
,4.882001,-1.99E-11,,
,4.884001,-1.89E-11,,
,4.886001,-1.89E-11,,
,4.888001,-1.97E-11,,
,4.890001,-2.10E-11,,
,4.892001,-2.18E-11,,
,4.894001,-2.21E-11,,
,4.896001,-2.13E-11,,
,4.898001,-1.99E-11,,
,4.900001,-1.88E-11,,
,4.902001,-1.86E-11,,
,4.904001,-1.93E-11,,
,4.906001,-2.02E-11,,
,4.908001,-2.12E-11,,
,4.910001,-2.16E-11,,
,4.912001,-2.14E-11,,
,4.914001,-2.02E-11,,
,4.916001,-1.89E-11,,
,4.918001,-1.83E-11,,
,4.920001,-1.86E-11,,
,4.922001,-1.97E-11,,
,4.924001,-2.07E-11,,
,4.926001,-2.16E-11,,
,4.928001,-2.16E-11,,
,4.930001,-2.07E-11,,
,4.932001,-1.93E-11,,
,4.934001,-1.81E-11,,
,4.936001,-1.78E-11,,
,4.938001,-1.85E-11,,
,4.940001,-1.96E-11,,
,4.942001,-2.02E-11,,
,4.944001,-2.02E-11,,
,4.946001,-1.96E-11,,
,4.948001,-1.84E-11,,
,4.950001,-1.70E-11,,
,4.952001,-1.61E-11,,
,4.954001,-1.65E-11,,
,4.956001,-1.76E-11,,
,4.958001,-1.87E-11,,
,4.960001,-1.89E-11,,
,4.962001,-1.82E-11,,
,4.964001,-1.69E-11,,
,4.966001,-1.55E-11,,
,4.968001,-1.43E-11,,
,4.970001,-1.42E-11,,
,4.972001,-1.47E-11,,
,4.974001,-1.58E-11,,
,4.976001,-1.65E-11,,
,4.978001,-1.60E-11,,
,4.980001,-1.52E-11,,
,4.982001,-1.33E-11,,
,4.984001,-1.20E-11,,
,4.986001,-1.15E-11,,
,4.988001,-1.24E-11,,
,4.990001,-1.39E-11,,
,4.992001,-1.48E-11,,
,4.994001,-1.51E-11,,
,4.996001,-1.43E-11,,
,4.998001,-1.29E-11,,
,5.000001,-1.16E-11,,
,5.002001,-1.10E-11,,
,5.004001,-1.13E-11,,
,5.006001,-1.23E-11,,
,5.008001,-1.34E-11,,
,5.010001,-1.40E-11,,
,5.012001,-1.38E-11,,
,5.014001,-1.27E-11,,
,5.016001,-1.16E-11,,
,5.018001,-1.08E-11,,
,5.020001,-1.10E-11,,
,5.022001,-1.20E-11,,
,5.024001,-1.33E-11,,
,5.026001,-1.42E-11,,
,5.028001,-1.43E-11,,
,5.030001,-1.36E-11,,
,5.032001,-1.24E-11,,
,5.034001,-1.13E-11,,
,5.036001,-1.13E-11,,
,5.038001,-1.22E-11,,
,5.040001,-1.37E-11,,
,5.042001,-1.47E-11,,
,5.044001,-1.52E-11,,
,5.046001,-1.43E-11,,
,5.048001,-1.29E-11,,
,5.050001,-1.14E-11,,
,5.052001,-1.12E-11,,
,5.054001,-1.19E-11,,
,5.056001,-1.36E-11,,
,5.058001,-1.49E-11,,
,5.060001,-1.56E-11,,
,5.062001,-1.53E-11,,
,5.064001,-1.41E-11,,
,5.066001,-1.29E-11,,
,5.068001,-1.23E-11,,
,5.070001,-1.24E-11,,
,5.072001,-1.34E-11,,
,5.074001,-1.45E-11,,
,5.076001,-1.56E-11,,
,5.078001,-1.58E-11,,
,5.080001,-1.53E-11,,
,5.082001,-1.40E-11,,
,5.084001,-1.29E-11,,
,5.086001,-1.27E-11,,
,5.088001,-1.36E-11,,
,5.090001,-1.47E-11,,
,5.092001,-1.60E-11,,
,5.094001,-1.65E-11,,
,5.096001,-1.60E-11,,
,5.098001,-1.46E-11,,
,5.100001,-1.37E-11,,
,5.102001,-1.34E-11,,
,5.104001,-1.42E-11,,
,5.106001,-1.56E-11,,
,5.108001,-1.69E-11,,
,5.110001,-1.77E-11,,
,5.112001,-1.74E-11,,
,5.114001,-1.67E-11,,
,5.116001,-1.55E-11,,
,5.118001,-1.47E-11,,
,5.120001,-1.47E-11,,
,5.122001,-1.60E-11,,
,5.124001,-1.75E-11,,
,5.126001,-1.87E-11,,
,5.128001,-1.88E-11,,
,5.130001,-1.80E-11,,
,5.132001,-1.68E-11,,
,5.134001,-1.58E-11,,
,5.136001,-1.59E-11,,
,5.138001,-1.67E-11,,
,5.140001,-1.80E-11,,
,5.142001,-1.92E-11,,
,5.144001,-1.99E-11,,
,5.146001,-1.93E-11,,
,5.148001,-1.84E-11,,
,5.150001,-1.74E-11,,
,5.152001,-1.73E-11,,
,5.154001,-1.81E-11,,
,5.156001,-1.95E-11,,
,5.158001,-2.10E-11,,
,5.160001,-2.16E-11,,
,5.162001,-2.14E-11,,
,5.164001,-2.05E-11,,
,5.166001,-1.96E-11,,
,5.168001,-1.90E-11,,
,5.170001,-1.92E-11,,
,5.172001,-2.03E-11,,
,5.174001,-2.17E-11,,
,5.176001,-2.27E-11,,
,5.178001,-2.28E-11,,
,5.180001,-2.21E-11,,
,5.182001,-2.11E-11,,
,5.184001,-2.02E-11,,
,5.186001,-2.00E-11,,
,5.188001,-2.10E-11,,
,5.190001,-2.22E-11,,
,5.192001,-2.35E-11,,
,5.194001,-2.40E-11,,
,5.196001,-2.36E-11,,
,5.198001,-2.27E-11,,
,5.200001,-2.15E-11,,
,5.202001,-2.10E-11,,
,5.204001,-2.15E-11,,
,5.206001,-2.30E-11,,
,5.208001,-2.44E-11,,
,5.210001,-2.50E-11,,
,5.212001,-2.47E-11,,
,5.214001,-2.38E-11,,
,5.216001,-2.26E-11,,
,5.218001,-2.16E-11,,
,5.220001,-2.20E-11,,
,5.222001,-2.31E-11,,
,5.224001,-2.46E-11,,
,5.226001,-2.57E-11,,
,5.228001,-2.61E-11,,
,5.230001,-2.56E-11,,
,5.232001,-2.43E-11,,
,5.234001,-2.34E-11,,
,5.236001,-2.33E-11,,
,5.238001,-2.42E-11,,
,5.240001,-2.55E-11,,
,5.242001,-2.65E-11,,
,5.244001,-2.69E-11,,
,5.246001,-2.63E-11,,
,5.248001,-2.53E-11,,
,5.250001,-2.41E-11,,
,5.252001,-2.34E-11,,
,5.254001,-2.38E-11,,
,5.256001,-2.50E-11,,
,5.258001,-2.63E-11,,
,5.260001,-2.72E-11,,
,5.262001,-2.69E-11,,
,5.264001,-2.60E-11,,
,5.266001,-2.49E-11,,
,5.268001,-2.44E-11,,
,5.270001,-2.45E-11,,
,5.272001,-2.57E-11,,
,5.274001,-2.71E-11,,
,5.276001,-2.83E-11,,
,5.278001,-2.82E-11,,
,5.280001,-2.72E-11,,
,5.282001,-2.58E-11,,
,5.284001,-2.49E-11,,
,5.286001,-2.49E-11,,
,5.288001,-2.57E-11,,
,5.290001,-2.70E-11,,
,5.292001,-2.82E-11,,
,5.294001,-2.88E-11,,
,5.296001,-2.85E-11,,
,5.298001,-2.75E-11,,
,5.300001,-2.62E-11,,
,5.302001,-2.58E-11,,
,5.304001,-2.63E-11,,
,5.306001,-2.79E-11,,
,5.308001,-2.92E-11,,
,5.310001,-3.00E-11,,
,5.312001,-2.97E-11,,
,5.314001,-2.87E-11,,
,5.316001,-2.74E-11,,
,5.318001,-2.64E-11,,
,5.320001,-2.68E-11,,
,5.322001,-2.80E-11,,
,5.324001,-2.99E-11,,
,5.326001,-3.09E-11,,
,5.328001,-3.12E-11,,
,5.330001,-3.07E-11,,
,5.332001,-2.99E-11,,
,5.334001,-2.93E-11,,
,5.336001,-2.95E-11,,
,5.338001,-3.08E-11,,
,5.340001,-3.26E-11,,
,5.342001,-3.43E-11,,
,5.344001,-3.53E-11,,
,5.346001,-3.56E-11,,
,5.348001,-3.49E-11,,
,5.350001,-3.44E-11,,
,5.352001,-3.46E-11,,
,5.354001,-3.60E-11,,
,5.356001,-3.80E-11,,
,5.358001,-4.02E-11,,
,5.360001,-4.18E-11,,
,5.362001,-4.24E-11,,
,5.364001,-4.26E-11,,
,5.366001,-4.21E-11,,
,5.368001,-4.23E-11,,
,5.370001,-4.34E-11,,
,5.372001,-4.55E-11,,
,5.374001,-4.78E-11,,
,5.376001,-4.95E-11,,
,5.378001,-5.05E-11,,
,5.380001,-5.08E-11,,
,5.382001,-5.07E-11,,
,5.384001,-5.09E-11,,
,5.386001,-5.19E-11,,
,5.388001,-5.35E-11,,
,5.390001,-5.61E-11,,
,5.392001,-5.84E-11,,
,5.394001,-6.03E-11,,
,5.396001,-6.09E-11,,
,5.398001,-6.07E-11,,
,5.400001,-6.04E-11,,
,5.402001,-6.07E-11,,
,5.404001,-6.24E-11,,
,5.406001,-6.48E-11,,
,5.408001,-6.72E-11,,
,5.410001,-6.86E-11,,
,5.412001,-6.95E-11,,
,5.414001,-6.95E-11,,
,5.416001,-6.95E-11,,
,5.418001,-6.97E-11,,
,5.420001,-7.08E-11,,
,5.422001,-7.26E-11,,
,5.424001,-7.46E-11,,
,5.426001,-7.65E-11,,
,5.428001,-7.74E-11,,
,5.430001,-7.76E-11,,
,5.432001,-7.72E-11,,
,5.434001,-7.70E-11,,
,5.436001,-7.74E-11,,
,5.438001,-7.86E-11,,
,5.440001,-8.04E-11,,
,5.442001,-8.22E-11,,
,5.444001,-8.32E-11,,
,5.446001,-8.33E-11,,
,5.448001,-8.27E-11,,
,5.450001,-8.19E-11,,
,5.452001,-8.17E-11,,
,5.454001,-8.27E-11,,
,5.456001,-8.44E-11,,
,5.458001,-8.60E-11,,
,5.460001,-8.68E-11,,
,5.462001,-8.68E-11,,
,5.464001,-8.60E-11,,
,5.466001,-8.51E-11,,
,5.468001,-8.45E-11,,
,5.470001,-8.46E-11,,
,5.472001,-8.56E-11,,
,5.474001,-8.67E-11,,
,5.476001,-8.78E-11,,
,5.478001,-8.78E-11,,
,5.480001,-8.71E-11,,
,5.482001,-8.55E-11,,
,5.484001,-8.42E-11,,
,5.486001,-8.38E-11,,
,5.488001,-8.44E-11,,
,5.490001,-8.57E-11,,
,5.492001,-8.64E-11,,
,5.494001,-8.66E-11,,
,5.496001,-8.57E-11,,
,5.498001,-8.43E-11,,
,5.500001,-8.27E-11,,
,5.502001,-8.14E-11,,
,5.504001,-8.13E-11,,
,5.506001,-8.18E-11,,
,5.508001,-8.26E-11,,
,5.510001,-8.27E-11,,
,5.512001,-8.18E-11,,
,5.514001,-8.01E-11,,
,5.516001,-7.80E-11,,
,5.518001,-7.66E-11,,
,5.520001,-7.64E-11,,
,5.522001,-7.69E-11,,
,5.524001,-7.74E-11,,
,5.526001,-7.78E-11,,
,5.528001,-7.74E-11,,
,5.530001,-7.60E-11,,
,5.532001,-7.42E-11,,
,5.534001,-7.24E-11,,
,5.536001,-7.16E-11,,
,5.538001,-7.14E-11,,
,5.540001,-7.20E-11,,
,5.542001,-7.26E-11,,
,5.544001,-7.25E-11,,
,5.546001,-7.15E-11,,
,5.548001,-6.97E-11,,
,5.550001,-6.80E-11,,
,5.552001,-6.67E-11,,
,5.554001,-6.65E-11,,
,5.556001,-6.74E-11,,
,5.558001,-6.82E-11,,
,5.560001,-6.84E-11,,
,5.562001,-6.76E-11,,
,5.564001,-6.62E-11,,
,5.566001,-6.42E-11,,
,5.568001,-6.27E-11,,
,5.570001,-6.25E-11,,
,5.572001,-6.32E-11,,
,5.574001,-6.42E-11,,
,5.576001,-6.47E-11,,
,5.578001,-6.48E-11,,
,5.580001,-6.35E-11,,
,5.582001,-6.20E-11,,
,5.584001,-6.05E-11,,
,5.586001,-6.00E-11,,
,5.588001,-6.04E-11,,
,5.590001,-6.13E-11,,
,5.592001,-6.23E-11,,
,5.594001,-6.25E-11,,
,5.596001,-6.18E-11,,
,5.598001,-6.03E-11,,
,5.600001,-5.85E-11,,
,5.602001,-5.76E-11,,
,5.604001,-5.79E-11,,
,5.606001,-5.91E-11,,
,5.608001,-6.01E-11,,
,5.610001,-6.07E-11,,
,5.612001,-6.03E-11,,
,5.614001,-5.95E-11,,
,5.616001,-5.81E-11,,
,5.618001,-5.75E-11,,
,5.620001,-5.71E-11,,
,5.622001,-5.81E-11,,
,5.624001,-5.91E-11,,
,5.626001,-6.00E-11,,
,5.628001,-5.99E-11,,
,5.630001,-5.92E-11,,
,5.632001,-5.79E-11,,
,5.634001,-5.68E-11,,
,5.636001,-5.66E-11,,
,5.638001,-5.74E-11,,
,5.640001,-5.83E-11,,
,5.642001,-5.92E-11,,
,5.644001,-5.93E-11,,
,5.646001,-5.85E-11,,
,5.648001,-5.71E-11,,
,5.650001,-5.57E-11,,
,5.652001,-5.52E-11,,
,5.654001,-5.55E-11,,
,5.656001,-5.66E-11,,
,5.658001,-5.77E-11,,
,5.660001,-5.80E-11,,
,5.662001,-5.72E-11,,
,5.664001,-5.57E-11,,
,5.666001,-5.43E-11,,
,5.668001,-5.31E-11,,
,5.670001,-5.26E-11,,
,5.672001,-5.30E-11,,
,5.674001,-5.39E-11,,
,5.676001,-5.45E-11,,
,5.678001,-5.40E-11,,
,5.680001,-5.28E-11,,
,5.682001,-5.13E-11,,
,5.684001,-4.99E-11,,
,5.686001,-4.93E-11,,
,5.688001,-4.95E-11,,
,5.690001,-5.03E-11,,
,5.692001,-5.07E-11,,
,5.694001,-5.06E-11,,
,5.696001,-4.95E-11,,
,5.698001,-4.78E-11,,
,5.700001,-4.59E-11,,
,5.702001,-4.45E-11,,
,5.704001,-4.43E-11,,
,5.706001,-4.47E-11,,
,5.708001,-4.53E-11,,
,5.710001,-4.50E-11,,
,5.712001,-4.40E-11,,
,5.714001,-4.23E-11,,
,5.716001,-4.05E-11,,
,5.718001,-3.90E-11,,
,5.720001,-3.82E-11,,
,5.722001,-3.87E-11,,
,5.724001,-3.91E-11,,
,5.726001,-3.95E-11,,
,5.728001,-3.88E-11,,
,5.730001,-3.74E-11,,
,5.732001,-3.55E-11,,
,5.734001,-3.37E-11,,
,5.736001,-3.30E-11,,
,5.738001,-3.33E-11,,
,5.740001,-3.46E-11,,
,5.742001,-3.57E-11,,
,5.744001,-3.59E-11,,
,5.746001,-3.47E-11,,
,5.748001,-3.31E-11,,
,5.750001,-3.16E-11,,
,5.752001,-3.08E-11,,
,5.754001,-3.07E-11,,
,5.756001,-3.17E-11,,
,5.758001,-3.29E-11,,
,5.760001,-3.38E-11,,
,5.762001,-3.36E-11,,
,5.764001,-3.27E-11,,
,5.766001,-3.14E-11,,
,5.768001,-3.03E-11,,
,5.770001,-3.02E-11,,
,5.772001,-3.11E-11,,
,5.774001,-3.22E-11,,
,5.776001,-3.30E-11,,
,5.778001,-3.30E-11,,
,5.780001,-3.24E-11,,
,5.782001,-3.15E-11,,
,5.784001,-3.06E-11,,
,5.786001,-3.06E-11,,
,5.788001,-3.18E-11,,
,5.790001,-3.37E-11,,
,5.792001,-3.55E-11,,
,5.794001,-3.65E-11,,
,5.796001,-3.68E-11,,
,5.798001,-3.63E-11,,
,5.800001,-3.60E-11,,
,5.802001,-3.62E-11,,
,5.804001,-3.76E-11,,
,5.806001,-3.94E-11,,
,5.808001,-4.13E-11,,
,5.810001,-4.24E-11,,
,5.812001,-4.30E-11,,
,5.814001,-4.25E-11,,
,5.816001,-4.22E-11,,
,5.818001,-4.16E-11,,
,5.820001,-4.21E-11,,
,5.822001,-4.35E-11,,
,5.824001,-4.58E-11,,
,5.826001,-4.72E-11,,
,5.828001,-4.76E-11,,
,5.830001,-4.69E-11,,
,5.832001,-4.60E-11,,
,5.834001,-4.51E-11,,
,5.836001,-4.51E-11,,
,5.838001,-4.61E-11,,
,5.840001,-4.73E-11,,
,5.842001,-4.83E-11,,
,5.844001,-4.86E-11,,
,5.846001,-4.81E-11,,
,5.848001,-4.70E-11,,
,5.850001,-4.61E-11,,
,5.852001,-4.57E-11,,
,5.854001,-4.59E-11,,
,5.856001,-4.69E-11,,
,5.858001,-4.81E-11,,
,5.860001,-4.91E-11,,
,5.862001,-4.91E-11,,
,5.864001,-4.82E-11,,
,5.866001,-4.67E-11,,
,5.868001,-4.58E-11,,
,5.870001,-4.57E-11,,
,5.872001,-4.66E-11,,
,5.874001,-4.79E-11,,
,5.876001,-4.88E-11,,
,5.878001,-4.90E-11,,
,5.880001,-4.82E-11,,
,5.882001,-4.70E-11,,
,5.884001,-4.59E-11,,
,5.886001,-4.54E-11,,
,5.888001,-4.62E-11,,
,5.890001,-4.77E-11,,
,5.892001,-4.88E-11,,
,5.894001,-4.92E-11,,
,5.896001,-4.86E-11,,
,5.898001,-4.76E-11,,
,5.900001,-4.64E-11,,
,5.902001,-4.58E-11,,
,5.904001,-4.61E-11,,
,5.906001,-4.70E-11,,
,5.908001,-4.82E-11,,
,5.910001,-4.89E-11,,
,5.912001,-4.87E-11,,
,5.914001,-4.77E-11,,
,5.916001,-4.61E-11,,
,5.918001,-4.48E-11,,
,5.920001,-4.46E-11,,
,5.922001,-4.54E-11,,
,5.924001,-4.67E-11,,
,5.926001,-4.76E-11,,
,5.928001,-4.75E-11,,
,5.930001,-4.68E-11,,
,5.932001,-4.53E-11,,
,5.934001,-4.41E-11,,
,5.936001,-4.35E-11,,
,5.938001,-4.39E-11,,
,5.940001,-4.51E-11,,
,5.942001,-4.60E-11,,
,5.944001,-4.63E-11,,
,5.946001,-4.55E-11,,
,5.948001,-4.43E-11,,
,5.950001,-4.29E-11,,
,5.952001,-4.20E-11,,
,5.954001,-4.20E-11,,
,5.956001,-4.29E-11,,
,5.958001,-4.37E-11,,
,5.960001,-4.40E-11,,
,5.962001,-4.36E-11,,
,5.964001,-4.26E-11,,
,5.966001,-4.11E-11,,
,5.968001,-3.96E-11,,
,5.970001,-3.92E-11,,
,5.972001,-4.00E-11,,
,5.974001,-4.10E-11,,
,5.976001,-4.15E-11,,
,5.978001,-4.09E-11,,
,5.980001,-3.95E-11,,
,5.982001,-3.77E-11,,
,5.984001,-3.62E-11,,
,5.986001,-3.59E-11,,
,5.988001,-3.63E-11,,
,5.990001,-3.74E-11,,
,5.992001,-3.82E-11,,
,5.994001,-3.84E-11,,
,5.996001,-3.76E-11,,
,5.998001,-3.61E-11,,
,6.000001,-3.44E-11,,
,6.002001,-3.34E-11,,
,6.004001,-3.33E-11,,
,6.006001,-3.44E-11,,
,6.008001,-3.53E-11,,
,6.010001,-3.59E-11,,
,6.012001,-3.55E-11,,
,6.014001,-3.43E-11,,
,6.016001,-3.27E-11,,
,6.018001,-3.16E-11,,
,6.020001,-3.15E-11,,
,6.022001,-3.22E-11,,
,6.024001,-3.32E-11,,
,6.026001,-3.37E-11,,
,6.028001,-3.35E-11,,
,6.030001,-3.28E-11,,
,6.032001,-3.16E-11,,
,6.034001,-3.06E-11,,
,6.036001,-3.01E-11,,
,6.038001,-3.06E-11,,
,6.040001,-3.17E-11,,
,6.042001,-3.26E-11,,
,6.044001,-3.30E-11,,
,6.046001,-3.24E-11,,
,6.048001,-3.16E-11,,
,6.050001,-3.01E-11,,
,6.052001,-2.94E-11,,
,6.054001,-2.97E-11,,
,6.056001,-3.08E-11,,
,6.058001,-3.22E-11,,
,6.060001,-3.31E-11,,
,6.062001,-3.30E-11,,
,6.064001,-3.19E-11,,
,6.066001,-3.06E-11,,
,6.068001,-2.98E-11,,
,6.070001,-2.97E-11,,
,6.072001,-3.06E-11,,
,6.074001,-3.17E-11,,
,6.076001,-3.26E-11,,
,6.078001,-3.24E-11,,
,6.080001,-3.18E-11,,
,6.082001,-3.07E-11,,
,6.084001,-2.97E-11,,
,6.086001,-2.92E-11,,
,6.088001,-3.00E-11,,
,6.090001,-3.15E-11,,
,6.092001,-3.28E-11,,
,6.094001,-3.32E-11,,
,6.096001,-3.28E-11,,
,6.098001,-3.18E-11,,
,6.100001,-3.07E-11,,
,6.102001,-3.00E-11,,
,6.104001,-3.05E-11,,
,6.106001,-3.16E-11,,
,6.108001,-3.29E-11,,
,6.110001,-3.34E-11,,
,6.112001,-3.32E-11,,
,6.114001,-3.22E-11,,
,6.116001,-3.09E-11,,
,6.118001,-3.02E-11,,
,6.120001,-3.03E-11,,
,6.122001,-3.13E-11,,
,6.124001,-3.23E-11,,
,6.126001,-3.32E-11,,
,6.128001,-3.32E-11,,
,6.130001,-3.24E-11,,
,6.132001,-3.13E-11,,
,6.134001,-3.02E-11,,
,6.136001,-3.01E-11,,
,6.138001,-3.07E-11,,
,6.140001,-3.20E-11,,
,6.142001,-3.30E-11,,
,6.144001,-3.35E-11,,
,6.146001,-3.32E-11,,
,6.148001,-3.23E-11,,
,6.150001,-3.12E-11,,
,6.152001,-3.07E-11,,
,6.154001,-3.11E-11,,
,6.156001,-3.23E-11,,
,6.158001,-3.35E-11,,
,6.160001,-3.42E-11,,
,6.162001,-3.41E-11,,
,6.164001,-3.33E-11,,
,6.166001,-3.21E-11,,
,6.168001,-3.13E-11,,
,6.170001,-3.12E-11,,
,6.172001,-3.23E-11,,
,6.174001,-3.35E-11,,
,6.176001,-3.46E-11,,
,6.178001,-3.46E-11,,
,6.180001,-3.38E-11,,
,6.182001,-3.24E-11,,
,6.184001,-3.14E-11,,
,6.186001,-3.09E-11,,
,6.188001,-3.16E-11,,
,6.190001,-3.28E-11,,
,6.192001,-3.36E-11,,
,6.194001,-3.38E-11,,
,6.196001,-3.32E-11,,
,6.198001,-3.21E-11,,
,6.200001,-3.08E-11,,
,6.202001,-3.00E-11,,
,6.204001,-3.02E-11,,
,6.206001,-3.12E-11,,
,6.208001,-3.21E-11,,
,6.210001,-3.27E-11,,
,6.212001,-3.24E-11,,
,6.214001,-3.16E-11,,
,6.216001,-3.04E-11,,
,6.218001,-2.95E-11,,
,6.220001,-2.97E-11,,
,6.222001,-3.04E-11,,
,6.224001,-3.14E-11,,
,6.226001,-3.20E-11,,
,6.228001,-3.19E-11,,
,6.230001,-3.13E-11,,
,6.232001,-3.00E-11,,
,6.234001,-2.89E-11,,
,6.236001,-2.82E-11,,
,6.238001,-2.84E-11,,
,6.240001,-2.92E-11,,
,6.242001,-3.02E-11,,
,6.244001,-3.05E-11,,
,6.246001,-3.00E-11,,
,6.248001,-2.87E-11,,
,6.250001,-2.74E-11,,
,6.252001,-2.64E-11,,
,6.254001,-2.65E-11,,
,6.256001,-2.75E-11,,
,6.258001,-2.91E-11,,
,6.260001,-2.98E-11,,
,6.262001,-2.98E-11,,
,6.264001,-2.87E-11,,
,6.266001,-2.74E-11,,
,6.268001,-2.63E-11,,
,6.270001,-2.58E-11,,
,6.272001,-2.65E-11,,
,6.274001,-2.74E-11,,
,6.276001,-2.83E-11,,
,6.278001,-2.82E-11,,
,6.280001,-2.72E-11,,
,6.282001,-2.59E-11,,
,6.284001,-2.45E-11,,
,6.286001,-2.41E-11,,
,6.288001,-2.44E-11,,
,6.290001,-2.56E-11,,
,6.292001,-2.66E-11,,
,6.294001,-2.71E-11,,
,6.296001,-2.66E-11,,
,6.298001,-2.54E-11,,
,6.300001,-2.41E-11,,
,6.302001,-2.34E-11,,
,6.304001,-2.38E-11,,
,6.306001,-2.50E-11,,
,6.308001,-2.62E-11,,
,6.310001,-2.70E-11,,
,6.312001,-2.65E-11,,
,6.314001,-2.57E-11,,
,6.316001,-2.44E-11,,
,6.318001,-2.34E-11,,
,6.320001,-2.31E-11,,
,6.322001,-2.39E-11,,
,6.324001,-2.50E-11,,
,6.326001,-2.57E-11,,
,6.328001,-2.56E-11,,
,6.330001,-2.46E-11,,
,6.332001,-2.32E-11,,
,6.334001,-2.19E-11,,
,6.336001,-2.14E-11,,
,6.338001,-2.20E-11,,
,6.340001,-2.31E-11,,
,6.342001,-2.43E-11,,
,6.344001,-2.44E-11,,
,6.346001,-2.36E-11,,
,6.348001,-2.20E-11,,
,6.350001,-2.05E-11,,
,6.352001,-1.97E-11,,
,6.354001,-1.98E-11,,
,6.356001,-2.06E-11,,
,6.358001,-2.16E-11,,
,6.360001,-2.20E-11,,
,6.362001,-2.17E-11,,
,6.364001,-2.06E-11,,
,6.366001,-1.92E-11,,
,6.368001,-1.83E-11,,
,6.370001,-1.82E-11,,
,6.372001,-1.91E-11,,
,6.374001,-2.03E-11,,
,6.376001,-2.13E-11,,
,6.378001,-2.13E-11,,
,6.380001,-2.04E-11,,
,6.382001,-1.90E-11,,
,6.384001,-1.76E-11,,
,6.386001,-1.70E-11,,
,6.388001,-1.76E-11,,
,6.390001,-1.89E-11,,
,6.392001,-2.03E-11,,
,6.394001,-2.04E-11,,
,6.396001,-2.00E-11,,
,6.398001,-1.87E-11,,
,6.400001,-1.73E-11,,
,6.402001,-1.65E-11,,
,6.404001,-1.66E-11,,
,6.406001,-1.77E-11,,
,6.408001,-1.88E-11,,
,6.410001,-1.95E-11,,
,6.412001,-1.92E-11,,
,6.414001,-1.83E-11,,
,6.416001,-1.69E-11,,
,6.418001,-1.57E-11,,
,6.420001,-1.54E-11,,
,6.422001,-1.62E-11,,
,6.424001,-1.74E-11,,
,6.426001,-1.83E-11,,
,6.428001,-1.82E-11,,
,6.430001,-1.73E-11,,
,6.432001,-1.60E-11,,
,6.434001,-1.47E-11,,
,6.436001,-1.43E-11,,
,6.438001,-1.47E-11,,
,6.440001,-1.60E-11,,
,6.442001,-1.69E-11,,
,6.444001,-1.72E-11,,
,6.446001,-1.65E-11,,
,6.448001,-1.54E-11,,
,6.450001,-1.41E-11,,
,6.452001,-1.31E-11,,
,6.454001,-1.31E-11,,
,6.456001,-1.41E-11,,
,6.458001,-1.57E-11,,
,6.460001,-1.66E-11,,
,6.462001,-1.65E-11,,
,6.464001,-1.53E-11,,
,6.466001,-1.39E-11,,
,6.468001,-1.25E-11,,
,6.470001,-1.24E-11,,
,6.472001,-1.31E-11,,
,6.474001,-1.45E-11,,
,6.476001,-1.54E-11,,
,6.478001,-1.55E-11,,
,6.480001,-1.47E-11,,
,6.482001,-1.34E-11,,
,6.484001,-1.19E-11,,
,6.486001,-1.13E-11,,
,6.488001,-1.15E-11,,
,6.490001,-1.29E-11,,
,6.492001,-1.40E-11,,
,6.494001,-1.44E-11,,
,6.496001,-1.39E-11,,
,6.498001,-1.27E-11,,
,6.500001,-1.11E-11,,
,6.502001,-1.01E-11,,
,6.504001,-1.01E-11,,
,6.506001,-1.15E-11,,
,6.508001,-1.26E-11,,
,6.510001,-1.33E-11,,
,6.512001,-1.29E-11,,
,6.514001,-1.16E-11,,
,6.516001,-1.01E-11,,
,6.518001,-8.94E-12,,
,6.520001,-9.04E-12,,
,6.522001,-9.79E-12,,
,6.524001,-1.11E-11,,
,6.526001,-1.18E-11,,
,6.528001,-1.17E-11,,
,6.530001,-1.08E-11,,
,6.532001,-9.26E-12,,
,6.534001,-7.75E-12,,
,6.536001,-7.11E-12,,
,6.538001,-7.65E-12,,
,6.540001,-8.72E-12,,
,6.542001,-9.69E-12,,
,6.544001,-9.79E-12,,
,6.546001,-9.15E-12,,
,6.548001,-7.65E-12,,
,6.550001,-5.82E-12,,
,6.552001,-4.86E-12,,
,6.554001,-4.96E-12,,
,6.556001,-5.82E-12,,
,6.558001,-6.79E-12,,
,6.560001,-7.00E-12,,
,6.562001,-6.57E-12,,
,6.564001,-5.18E-12,,
,6.566001,-3.57E-12,,
,6.568001,-2.39E-12,,
,6.570001,-2.07E-12,,
,6.572001,-2.49E-12,,
,6.574001,-3.46E-12,,
,6.576001,-4.10E-12,,
,6.578001,-3.68E-12,,
,6.580001,-2.39E-12,,
,6.582001,-4.55E-13,,
,6.584001,9.41E-13,,
,6.586001,1.80E-12,,
,6.588001,1.37E-12,,
,6.590001,6.19E-13,,
,6.592001,-2.53E-14,,
,6.594001,1.89E-13,,
,6.596001,1.26E-12,,
,6.598001,2.66E-12,,
,6.600001,4.81E-12,,
,6.602001,6.20E-12,,
,6.604001,7.06E-12,,
,6.606001,6.42E-12,,
,6.608001,5.77E-12,,
,6.610001,5.66E-12,,
,6.612001,6.63E-12,,
,6.614001,8.24E-12,,
,6.616001,1.01E-11,,
,6.618001,1.15E-11,,
,6.620001,1.21E-11,,
,6.622001,1.20E-11,,
,6.624001,1.16E-11,,
,6.626001,1.14E-11,,
,6.628001,1.19E-11,,
,6.630001,1.32E-11,,
,6.632001,1.50E-11,,
,6.634001,1.67E-11,,
,6.636001,1.78E-11,,
,6.638001,1.80E-11,,
,6.640001,1.74E-11,,
,6.642001,1.68E-11,,
,6.644001,1.69E-11,,
,6.646001,1.81E-11,,
,6.648001,1.98E-11,,
,6.650001,2.20E-11,,
,6.652001,2.35E-11,,
,6.654001,2.42E-11,,
,6.656001,2.36E-11,,
,6.658001,2.28E-11,,
,6.660001,2.25E-11,,
,6.662001,2.33E-11,,
,6.664001,2.50E-11,,
,6.666001,2.68E-11,,
,6.668001,2.84E-11,,
,6.670001,2.91E-11,,
,6.672001,2.91E-11,,
,6.674001,2.85E-11,,
,6.676001,2.82E-11,,
,6.678001,2.87E-11,,
,6.680001,2.99E-11,,
,6.682001,3.18E-11,,
,6.684001,3.34E-11,,
,6.686001,3.44E-11,,
,6.688001,3.43E-11,,
,6.690001,3.35E-11,,
,6.692001,3.29E-11,,
,6.694001,3.31E-11,,
,6.696001,3.41E-11,,
,6.698001,3.55E-11,,
,6.700001,3.71E-11,,
,6.702001,3.84E-11,,
,6.704001,3.86E-11,,
,6.706001,3.79E-11,,
,6.708001,3.69E-11,,
,6.710001,3.64E-11,,
,6.712001,3.69E-11,,
,6.714001,3.81E-11,,
,6.716001,3.98E-11,,
,6.718001,4.11E-11,,
,6.720001,4.16E-11,,
,6.722001,4.12E-11,,
,6.724001,4.01E-11,,
,6.726001,3.95E-11,,
,6.728001,3.94E-11,,
,6.730001,4.02E-11,,
,6.732001,4.16E-11,,
,6.734001,4.30E-11,,
,6.736001,4.38E-11,,
,6.738001,4.32E-11,,
,6.740001,4.24E-11,,
,6.742001,4.16E-11,,
,6.744001,4.15E-11,,
,6.746001,4.23E-11,,
,6.748001,4.37E-11,,
,6.750001,4.52E-11,,
,6.752001,4.61E-11,,
,6.754001,4.59E-11,,
,6.756001,4.53E-11,,
,6.758001,4.41E-11,,
,6.760001,4.37E-11,,
,6.762001,4.39E-11,,
,6.764001,4.51E-11,,
,6.766001,4.64E-11,,
,6.768001,4.75E-11,,
,6.770001,4.79E-11,,
,6.772001,4.72E-11,,
,6.774001,4.58E-11,,
,6.776001,4.50E-11,,
,6.778001,4.51E-11,,
,6.780001,4.58E-11,,
,6.782001,4.70E-11,,
,6.784001,4.81E-11,,
,6.786001,4.88E-11,,
,6.788001,4.83E-11,,
,6.790001,4.71E-11,,
,6.792001,4.58E-11,,
,6.794001,4.55E-11,,
,6.796001,4.59E-11,,
,6.798001,4.72E-11,,
,6.800001,4.84E-11,,
,6.802001,4.94E-11,,
,6.804001,4.91E-11,,
,6.806001,4.81E-11,,
,6.808001,4.67E-11,,
,6.810001,4.60E-11,,
,6.812001,4.64E-11,,
,6.814001,4.75E-11,,
,6.816001,4.88E-11,,
,6.818001,4.99E-11,,
,6.820001,4.98E-11,,
,6.822001,4.91E-11,,
,6.824001,4.80E-11,,
,6.826001,4.72E-11,,
,6.828001,4.69E-11,,
,6.830001,4.74E-11,,
,6.832001,4.86E-11,,
,6.834001,4.98E-11,,
,6.836001,5.02E-11,,
,6.838001,4.97E-11,,
,6.840001,4.83E-11,,
,6.842001,4.71E-11,,
,6.844001,4.66E-11,,
,6.846001,4.70E-11,,
,6.848001,4.80E-11,,
,6.850001,4.90E-11,,
,6.852001,4.97E-11,,
,6.854001,4.94E-11,,
,6.856001,4.82E-11,,
,6.858001,4.68E-11,,
,6.860001,4.58E-11,,
,6.862001,4.58E-11,,
,6.864001,4.64E-11,,
,6.866001,4.79E-11,,
,6.868001,4.87E-11,,
,6.870001,4.89E-11,,
,6.872001,4.76E-11,,
,6.874001,4.62E-11,,
,6.876001,4.51E-11,,
,6.878001,4.47E-11,,
,6.880001,4.52E-11,,
,6.882001,4.64E-11,,
,6.884001,4.74E-11,,
,6.886001,4.75E-11,,
,6.888001,4.70E-11,,
,6.890001,4.57E-11,,
,6.892001,4.47E-11,,
,6.894001,4.38E-11,,
,6.896001,4.41E-11,,
,6.898001,4.52E-11,,
,6.900001,4.66E-11,,
,6.902001,4.73E-11,,
,6.904001,4.70E-11,,
,6.906001,4.60E-11,,
,6.908001,4.44E-11,,
,6.910001,4.36E-11,,
,6.912001,4.35E-11,,
,6.914001,4.45E-11,,
,6.916001,4.59E-11,,
,6.918001,4.70E-11,,
,6.920001,4.70E-11,,
,6.922001,4.60E-11,,
,6.924001,4.44E-11,,
,6.926001,4.31E-11,,
,6.928001,4.25E-11,,
,6.930001,4.29E-11,,
,6.932001,4.40E-11,,
,6.934001,4.51E-11,,
,6.936001,4.54E-11,,
,6.938001,4.46E-11,,
,6.940001,4.31E-11,,
,6.942001,4.18E-11,,
,6.944001,4.11E-11,,
,6.946001,4.13E-11,,
,6.948001,4.21E-11,,
,6.950001,4.33E-11,,
,6.952001,4.40E-11,,
,6.954001,4.38E-11,,
,6.956001,4.26E-11,,
,6.958001,4.09E-11,,
,6.960001,3.99E-11,,
,6.962001,3.98E-11,,
,6.964001,4.10E-11,,
,6.966001,4.22E-11,,
,6.968001,4.29E-11,,
,6.970001,4.30E-11,,
,6.972001,4.22E-11,,
,6.974001,4.08E-11,,
,6.976001,3.93E-11,,
,6.978001,3.86E-11,,
,6.980001,3.89E-11,,
,6.982001,4.00E-11,,
,6.984001,4.12E-11,,
,6.986001,4.16E-11,,
,6.988001,4.11E-11,,
,6.990001,3.98E-11,,
,6.992001,3.85E-11,,
,6.994001,3.77E-11,,
,6.996001,3.77E-11,,
,6.998001,3.84E-11,,
,7.000001,3.97E-11,,
,7.002001,4.03E-11,,
,7.004001,4.00E-11,,
,7.006001,3.87E-11,,
,7.008001,3.71E-11,,
,7.010001,3.63E-11,,
,7.012001,3.60E-11,,
,7.014001,3.68E-11,,
,7.016001,3.80E-11,,
,7.018001,3.89E-11,,
,7.020001,3.91E-11,,
,7.022001,3.79E-11,,
,7.024001,3.65E-11,,
,7.026001,3.53E-11,,
,7.028001,3.50E-11,,
,7.030001,3.52E-11,,
,7.032001,3.60E-11,,
,7.034001,3.70E-11,,
,7.036001,3.74E-11,,
,7.038001,3.69E-11,,
,7.040001,3.55E-11,,
,7.042001,3.40E-11,,
,7.044001,3.31E-11,,
,7.046001,3.34E-11,,
,7.048001,3.44E-11,,
,7.050001,3.56E-11,,
,7.052001,3.63E-11,,
,7.054001,3.58E-11,,
,7.056001,3.47E-11,,
,7.058001,3.29E-11,,
,7.060001,3.20E-11,,
,7.062001,3.18E-11,,
,7.064001,3.24E-11,,
,7.066001,3.36E-11,,
,7.068001,3.43E-11,,
,7.070001,3.44E-11,,
,7.072001,3.31E-11,,
,7.074001,3.18E-11,,
,7.076001,3.07E-11,,
,7.078001,3.05E-11,,
,7.080001,3.08E-11,,
,7.082001,3.20E-11,,
,7.084001,3.31E-11,,
,7.086001,3.39E-11,,
,7.088001,3.30E-11,,
,7.090001,3.15E-11,,
,7.092001,2.99E-11,,
,7.094001,2.94E-11,,
,7.096001,2.94E-11,,
,7.098001,3.06E-11,,
,7.100001,3.18E-11,,
,7.102001,3.27E-11,,
,7.104001,3.23E-11,,
,7.106001,3.10E-11,,
,7.108001,2.96E-11,,
,7.110001,2.87E-11,,
,7.112001,2.87E-11,,
,7.114001,2.95E-11,,
,7.116001,3.05E-11,,
,7.118001,3.13E-11,,
,7.120001,3.10E-11,,
,7.122001,2.99E-11,,
,7.124001,2.84E-11,,
,7.126001,2.75E-11,,
,7.128001,2.70E-11,,
,7.130001,2.76E-11,,
,7.132001,2.86E-11,,
,7.134001,2.98E-11,,
,7.136001,2.99E-11,,
,7.138001,2.92E-11,,
,7.140001,2.77E-11,,
,7.142001,2.64E-11,,
,7.144001,2.55E-11,,
,7.146001,2.56E-11,,
,7.148001,2.65E-11,,
,7.150001,2.80E-11,,
,7.152001,2.86E-11,,
,7.154001,2.84E-11,,
,7.156001,2.70E-11,,
,7.158001,2.57E-11,,
,7.160001,2.49E-11,,
,7.162001,2.46E-11,,
,7.164001,2.52E-11,,
,7.166001,2.61E-11,,
,7.168001,2.69E-11,,
,7.170001,2.69E-11,,
,7.172001,2.60E-11,,
,7.174001,2.45E-11,,
,7.176001,2.31E-11,,
,7.178001,2.24E-11,,
,7.180001,2.28E-11,,
,7.182001,2.35E-11,,
,7.184001,2.45E-11,,
,7.186001,2.47E-11,,
,7.188001,2.42E-11,,
,7.190001,2.28E-11,,
,7.192001,2.12E-11,,
,7.194001,2.05E-11,,
,7.196001,2.05E-11,,
,7.198001,2.14E-11,,
,7.200001,2.24E-11,,
,7.202001,2.31E-11,,
,7.204001,2.24E-11,,
,7.206001,2.08E-11,,
,7.208001,1.93E-11,,
,7.210001,1.84E-11,,
,7.212001,1.85E-11,,
,7.214001,1.93E-11,,
,7.216001,2.07E-11,,
,7.218001,2.17E-11,,
,7.220001,2.16E-11,,
,7.222001,2.05E-11,,
,7.224001,1.90E-11,,
,7.226001,1.79E-11,,
,7.228001,1.72E-11,,
,7.230001,1.79E-11,,
,7.232001,1.88E-11,,
,7.234001,1.99E-11,,
,7.236001,1.99E-11,,
,7.238001,1.92E-11,,
,7.240001,1.78E-11,,
,7.242001,1.63E-11,,
,7.244001,1.55E-11,,
,7.246001,1.54E-11,,
,7.248001,1.63E-11,,
,7.250001,1.74E-11,,
,7.252001,1.82E-11,,
,7.254001,1.79E-11,,
,7.256001,1.67E-11,,
,7.258001,1.52E-11,,
,7.260001,1.41E-11,,
,7.262001,1.38E-11,,
,7.264001,1.44E-11,,
,7.266001,1.54E-11,,
,7.268001,1.64E-11,,
,7.270001,1.63E-11,,
,7.272001,1.54E-11,,
,7.274001,1.38E-11,,
,7.276001,1.28E-11,,
,7.278001,1.22E-11,,
,7.280001,1.28E-11,,
,7.282001,1.37E-11,,
,7.284001,1.48E-11,,
,7.286001,1.52E-11,,
,7.288001,1.45E-11,,
,7.290001,1.31E-11,,
,7.292001,1.16E-11,,
,7.294001,1.08E-11,,
,7.296001,1.08E-11,,
,7.298001,1.16E-11,,
,7.300001,1.28E-11,,
,7.302001,1.33E-11,,
,7.304001,1.31E-11,,
,7.306001,1.18E-11,,
,7.308001,1.03E-11,,
,7.310001,9.21E-12,,
,7.312001,8.67E-12,,
,7.314001,9.10E-12,,
,7.316001,9.74E-12,,
,7.318001,1.05E-11,,
,7.320001,1.05E-11,,
,7.322001,9.31E-12,,
,7.324001,7.81E-12,,
,7.326001,6.42E-12,,
,7.328001,5.88E-12,,
,7.330001,5.99E-12,,
,7.332001,6.74E-12,,
,7.334001,7.81E-12,,
,7.336001,8.24E-12,,
,7.338001,7.81E-12,,
,7.340001,6.20E-12,,
,7.342001,4.70E-12,,
,7.344001,3.73E-12,,
,7.346001,3.84E-12,,
,7.348001,4.59E-12,,
,7.350001,5.34E-12,,
,7.352001,5.77E-12,,
,7.354001,5.13E-12,,
,7.356001,4.05E-12,,
,7.358001,2.44E-12,,
,7.360001,1.37E-12,,
,7.362001,6.19E-13,,
,7.364001,8.34E-13,,
,7.366001,1.59E-12,,
,7.368001,2.34E-12,,
,7.370001,2.23E-12,,
,7.372001,1.16E-12,,
,7.374001,-5.62E-13,,
,7.376001,-2.17E-12,,
,7.378001,-3.03E-12,,
,7.380001,-2.71E-12,,
,7.382001,-1.85E-12,,
,7.384001,-9.92E-13,,
,7.386001,-9.92E-13,,
,7.388001,-1.74E-12,,
,7.390001,-3.35E-12,,
,7.392001,-5.18E-12,,
,7.394001,-6.14E-12,,
,7.396001,-6.36E-12,,
,7.398001,-5.61E-12,,
,7.400001,-4.86E-12,,
,7.402001,-4.10E-12,,
,7.404001,-4.43E-12,,
,7.406001,-5.72E-12,,
,7.408001,-7.33E-12,,
,7.410001,-8.40E-12,,
,7.412001,-8.51E-12,,
,7.414001,-7.86E-12,,
,7.416001,-6.79E-12,,
,7.418001,-5.82E-12,,
,7.420001,-5.72E-12,,
,7.422001,-6.68E-12,,
,7.424001,-8.08E-12,,
,7.426001,-9.15E-12,,
,7.428001,-9.58E-12,,
,7.430001,-9.58E-12,,
,7.432001,-8.83E-12,,
,7.434001,-8.08E-12,,
,7.436001,-7.65E-12,,
,7.438001,-8.51E-12,,
,7.440001,-9.69E-12,,
,7.442001,-1.10E-11,,
,7.444001,-1.16E-11,,
,7.446001,-1.15E-11,,
,7.448001,-1.07E-11,,
,7.450001,-9.58E-12,,
,7.452001,-8.72E-12,,
,7.454001,-8.72E-12,,
,7.456001,-9.69E-12,,
,7.458001,-1.10E-11,,
,7.460001,-1.22E-11,,
,7.462001,-1.25E-11,,
,7.464001,-1.19E-11,,
,7.466001,-1.10E-11,,
,7.468001,-1.00E-11,,
,7.470001,-1.00E-11,,
,7.472001,-1.11E-11,,
,7.474001,-1.28E-11,,
,7.476001,-1.44E-11,,
,7.478001,-1.47E-11,,
,7.480001,-1.44E-11,,
,7.482001,-1.34E-11,,
,7.484001,-1.25E-11,,
,7.486001,-1.20E-11,,
,7.488001,-1.27E-11,,
,7.490001,-1.44E-11,,
,7.492001,-1.61E-11,,
,7.494001,-1.71E-11,,
,7.496001,-1.72E-11,,
,7.498001,-1.67E-11,,
,7.500001,-1.59E-11,,
,7.502001,-1.56E-11,,
,7.504001,-1.61E-11,,
,7.506001,-1.77E-11,,
,7.508001,-1.97E-11,,
,7.510001,-2.11E-11,,
,7.512001,-2.18E-11,,
,7.514001,-2.16E-11,,
,7.516001,-2.10E-11,,
,7.518001,-2.02E-11,,
,7.520001,-2.03E-11,,
,7.522001,-2.17E-11,,
,7.524001,-2.39E-11,,
,7.526001,-2.57E-11,,
,7.528001,-2.66E-11,,
,7.530001,-2.69E-11,,
,7.532001,-2.64E-11,,
,7.534001,-2.59E-11,,
,7.536001,-2.56E-11,,
,7.538001,-2.68E-11,,
,7.540001,-2.86E-11,,
,7.542001,-3.07E-11,,
,7.544001,-3.20E-11,,
,7.546001,-3.26E-11,,
,7.548001,-3.21E-11,,
,7.550001,-3.15E-11,,
,7.552001,-3.13E-11,,
,7.554001,-3.21E-11,,
,7.556001,-3.38E-11,,
,7.558001,-3.57E-11,,
,7.560001,-3.74E-11,,
,7.562001,-3.82E-11,,
,7.564001,-3.87E-11,,
,7.566001,-3.80E-11,,
,7.568001,-3.80E-11,,
,7.570001,-3.85E-11,,
,7.572001,-4.04E-11,,
,7.574001,-4.21E-11,,
,7.576001,-4.40E-11,,
,7.578001,-4.50E-11,,
,7.580001,-4.53E-11,,
,7.582001,-4.47E-11,,
,7.584001,-4.38E-11,,
,7.586001,-4.36E-11,,
,7.588001,-4.46E-11,,
,7.590001,-4.66E-11,,
,7.592001,-4.83E-11,,
,7.594001,-4.96E-11,,
,7.596001,-4.97E-11,,
,7.598001,-4.92E-11,,
,7.600001,-4.82E-11,,
,7.602001,-4.77E-11,,
,7.604001,-4.82E-11,,
,7.606001,-4.96E-11,,
,7.608001,-5.11E-11,,
,7.610001,-5.25E-11,,
,7.612001,-5.26E-11,,
,7.614001,-5.22E-11,,
,7.616001,-5.10E-11,,
,7.618001,-5.04E-11,,
,7.620001,-5.03E-11,,
,7.622001,-5.14E-11,,
,7.624001,-5.32E-11,,
,7.626001,-5.50E-11,,
,7.628001,-5.56E-11,,
,7.630001,-5.52E-11,,
,7.632001,-5.40E-11,,
,7.634001,-5.30E-11,,
,7.636001,-5.28E-11,,
,7.638001,-5.37E-11,,
,7.640001,-5.51E-11,,
,7.642001,-5.62E-11,,
,7.644001,-5.67E-11,,
,7.646001,-5.65E-11,,
,7.648001,-5.56E-11,,
,7.650001,-5.42E-11,,
,7.652001,-5.31E-11,,
,7.654001,-5.28E-11,,
,7.656001,-5.38E-11,,
,7.658001,-5.53E-11,,
,7.660001,-5.62E-11,,
,7.662001,-5.61E-11,,
,7.664001,-5.51E-11,,
,7.666001,-5.38E-11,,
,7.668001,-5.26E-11,,
,7.670001,-5.20E-11,,
,7.672001,-5.27E-11,,
,7.674001,-5.40E-11,,
,7.676001,-5.54E-11,,
,7.678001,-5.57E-11,,
,7.680001,-5.52E-11,,
,7.682001,-5.38E-11,,
,7.684001,-5.23E-11,,
,7.686001,-5.14E-11,,
,7.688001,-5.19E-11,,
,7.690001,-5.31E-11,,
,7.692001,-5.43E-11,,
,7.694001,-5.49E-11,,
,7.696001,-5.47E-11,,
,7.698001,-5.39E-11,,
,7.700001,-5.27E-11,,
,7.702001,-5.19E-11,,
,7.704001,-5.19E-11,,
,7.706001,-5.31E-11,,
,7.708001,-5.45E-11,,
,7.710001,-5.55E-11,,
,7.712001,-5.56E-11,,
,7.714001,-5.50E-11,,
,7.716001,-5.38E-11,,
,7.718001,-5.25E-11,,
,7.720001,-5.23E-11,,
,7.722001,-5.30E-11,,
,7.724001,-5.47E-11,,
,7.726001,-5.61E-11,,
,7.728001,-5.67E-11,,
,7.730001,-5.63E-11,,
,7.732001,-5.52E-11,,
,7.734001,-5.42E-11,,
,7.736001,-5.38E-11,,
,7.738001,-5.43E-11,,
,7.740001,-5.59E-11,,
,7.742001,-5.76E-11,,
,7.744001,-5.86E-11,,
,7.746001,-5.85E-11,,
,7.748001,-5.77E-11,,
,7.750001,-5.65E-11,,
,7.752001,-5.59E-11,,
,7.754001,-5.60E-11,,
,7.756001,-5.71E-11,,
,7.758001,-5.83E-11,,
,7.760001,-5.94E-11,,
,7.762001,-5.97E-11,,
,7.764001,-5.95E-11,,
,7.766001,-5.84E-11,,
,7.768001,-5.76E-11,,
,7.770001,-5.72E-11,,
,7.772001,-5.84E-11,,
,7.774001,-5.98E-11,,
,7.776001,-6.10E-11,,
,7.778001,-6.14E-11,,
,7.780001,-6.12E-11,,
,7.782001,-6.07E-11,,
,7.784001,-5.95E-11,,
,7.786001,-5.87E-11,,
,7.788001,-5.92E-11,,
,7.790001,-6.05E-11,,
,7.792001,-6.19E-11,,
,7.794001,-6.26E-11,,
,7.796001,-6.23E-11,,
,7.798001,-6.12E-11,,
,7.800001,-5.97E-11,,
,7.802001,-5.89E-11,,
,7.804001,-5.90E-11,,
,7.806001,-5.98E-11,,
,7.808001,-6.12E-11,,
,7.810001,-6.20E-11,,
,7.812001,-6.18E-11,,
,7.814001,-6.07E-11,,
,7.816001,-5.91E-11,,
,7.818001,-5.78E-11,,
,7.820001,-5.74E-11,,
,7.822001,-5.80E-11,,
,7.824001,-5.94E-11,,
,7.826001,-6.03E-11,,
,7.828001,-6.05E-11,,
,7.830001,-5.96E-11,,
,7.832001,-5.83E-11,,
,7.834001,-5.69E-11,,
,7.836001,-5.61E-11,,
,7.838001,-5.61E-11,,
,7.840001,-5.68E-11,,
,7.842001,-5.79E-11,,
,7.844001,-5.82E-11,,
,7.846001,-5.77E-11,,
,7.848001,-5.62E-11,,
,7.850001,-5.48E-11,,
,7.852001,-5.37E-11,,
,7.854001,-5.37E-11,,
,7.856001,-5.45E-11,,
,7.858001,-5.56E-11,,
,7.860001,-5.63E-11,,
,7.862001,-5.60E-11,,
,7.864001,-5.48E-11,,
,7.866001,-5.32E-11,,
,7.868001,-5.17E-11,,
,7.870001,-5.10E-11,,
,7.872001,-5.14E-11,,
,7.874001,-5.25E-11,,
,7.876001,-5.35E-11,,
,7.878001,-5.35E-11,,
,7.880001,-5.27E-11,,
,7.882001,-5.12E-11,,
,7.884001,-4.97E-11,,
,7.886001,-4.89E-11,,
,7.888001,-4.90E-11,,
,7.890001,-4.97E-11,,
,7.892001,-5.06E-11,,
,7.894001,-5.11E-11,,
,7.896001,-5.07E-11,,
,7.898001,-4.95E-11,,
,7.900001,-4.79E-11,,
,7.902001,-4.66E-11,,
,7.904001,-4.62E-11,,
,7.906001,-4.66E-11,,
,7.908001,-4.77E-11,,
,7.910001,-4.82E-11,,
,7.912001,-4.79E-11,,
,7.914001,-4.68E-11,,
,7.916001,-4.53E-11,,
,7.918001,-4.39E-11,,
,7.920001,-4.32E-11,,
,7.922001,-4.35E-11,,
,7.924001,-4.45E-11,,
,7.926001,-4.54E-11,,
,7.928001,-4.55E-11,,
,7.930001,-4.49E-11,,
,7.932001,-4.34E-11,,
,7.934001,-4.22E-11,,
,7.936001,-4.13E-11,,
,7.938001,-4.15E-11,,
,7.940001,-4.21E-11,,
,7.942001,-4.31E-11,,
,7.944001,-4.33E-11,,
,7.946001,-4.28E-11,,
,7.948001,-4.15E-11,,
,7.950001,-3.97E-11,,
,7.952001,-3.84E-11,,
,7.954001,-3.82E-11,,
,7.956001,-3.93E-11,,
,7.958001,-4.06E-11,,
,7.960001,-4.13E-11,,
,7.962001,-4.10E-11,,
,7.964001,-4.04E-11,,
,7.966001,-3.91E-11,,
,7.968001,-3.80E-11,,
,7.970001,-3.74E-11,,
,7.972001,-3.80E-11,,
,7.974001,-3.91E-11,,
,7.976001,-4.03E-11,,
,7.978001,-4.06E-11,,
,7.980001,-4.01E-11,,
,7.982001,-3.86E-11,,
,7.984001,-3.71E-11,,
,7.986001,-3.61E-11,,
,7.988001,-3.64E-11,,
,7.990001,-3.72E-11,,
,7.992001,-3.84E-11,,
,7.994001,-3.88E-11,,
,7.996001,-3.86E-11,,
,7.998001,-3.72E-11,,
,8.000001,-3.58E-11,,
,8.002001,-3.46E-11,,
,8.004001,-3.45E-11,,
,8.006001,-3.53E-11,,
,8.008001,-3.64E-11,,
,8.010001,-3.73E-11,,
,8.012001,-3.70E-11,,
,8.014001,-3.63E-11,,
,8.016001,-3.49E-11,,
,8.018001,-3.38E-11,,
,8.020001,-3.33E-11,,
,8.022001,-3.41E-11,,
,8.024001,-3.50E-11,,
,8.026001,-3.59E-11,,
,8.028001,-3.59E-11,,
,8.030001,-3.51E-11,,
,8.032001,-3.38E-11,,
,8.034001,-3.23E-11,,
,8.036001,-3.17E-11,,
,8.038001,-3.20E-11,,
,8.040001,-3.32E-11,,
,8.042001,-3.43E-11,,
,8.044001,-3.48E-11,,
,8.046001,-3.43E-11,,
,8.048001,-3.31E-11,,
,8.050001,-3.16E-11,,
,8.052001,-3.06E-11,,
,8.054001,-3.07E-11,,
,8.056001,-3.18E-11,,
,8.058001,-3.33E-11,,
,8.060001,-3.42E-11,,
,8.062001,-3.42E-11,,
,8.064001,-3.34E-11,,
,8.066001,-3.23E-11,,
,8.068001,-3.12E-11,,
,8.070001,-3.08E-11,,
,8.072001,-3.15E-11,,
,8.074001,-3.28E-11,,
,8.076001,-3.36E-11,,
,8.078001,-3.39E-11,,
,8.080001,-3.34E-11,,
,8.082001,-3.23E-11,,
,8.084001,-3.11E-11,,
,8.086001,-3.02E-11,,
,8.088001,-3.04E-11,,
,8.090001,-3.15E-11,,
,8.092001,-3.29E-11,,
,8.094001,-3.35E-11,,
,8.096001,-3.33E-11,,
,8.098001,-3.23E-11,,
,8.100001,-3.11E-11,,
,8.102001,-3.02E-11,,
,8.104001,-3.02E-11,,
,8.106001,-3.12E-11,,
,8.108001,-3.22E-11,,
,8.110001,-3.30E-11,,
,8.112001,-3.30E-11,,
,8.114001,-3.22E-11,,
,8.116001,-3.11E-11,,
,8.118001,-2.99E-11,,
,8.120001,-2.95E-11,,
,8.122001,-3.02E-11,,
,8.124001,-3.16E-11,,
,8.126001,-3.28E-11,,
,8.128001,-3.31E-11,,
,8.130001,-3.27E-11,,
,8.132001,-3.15E-11,,
,8.134001,-3.02E-11,,
,8.136001,-2.94E-11,,
,8.138001,-2.97E-11,,
,8.140001,-3.09E-11,,
,8.142001,-3.24E-11,,
,8.144001,-3.33E-11,,
,8.146001,-3.32E-11,,
,8.148001,-3.21E-11,,
,8.150001,-3.11E-11,,
,8.152001,-3.01E-11,,
,8.154001,-3.02E-11,,
,8.156001,-3.08E-11,,
,8.158001,-3.22E-11,,
,8.160001,-3.31E-11,,
,8.162001,-3.34E-11,,
,8.164001,-3.27E-11,,
,8.166001,-3.15E-11,,
,8.168001,-3.05E-11,,
,8.170001,-3.02E-11,,
,8.172001,-3.08E-11,,
,8.174001,-3.19E-11,,
,8.176001,-3.31E-11,,
,8.178001,-3.34E-11,,
,8.180001,-3.30E-11,,
,8.182001,-3.17E-11,,
,8.184001,-3.05E-11,,
,8.186001,-2.98E-11,,
,8.188001,-3.01E-11,,
,8.190001,-3.12E-11,,
,8.192001,-3.24E-11,,
,8.194001,-3.32E-11,,
,8.196001,-3.29E-11,,
,8.198001,-3.18E-11,,
,8.200001,-3.03E-11,,
,8.202001,-2.91E-11,,
,8.204001,-2.88E-11,,
,8.206001,-2.97E-11,,
,8.208001,-3.08E-11,,
,8.210001,-3.17E-11,,
,8.212001,-3.17E-11,,
,8.214001,-3.11E-11,,
,8.216001,-2.97E-11,,
,8.218001,-2.85E-11,,
,8.220001,-2.78E-11,,
,8.222001,-2.85E-11,,
,8.224001,-2.93E-11,,
,8.226001,-3.04E-11,,
,8.228001,-3.07E-11,,
,8.230001,-3.05E-11,,
,8.232001,-2.98E-11,,
,8.234001,-2.87E-11,,
,8.236001,-2.79E-11,,
,8.238001,-2.80E-11,,
,8.240001,-2.92E-11,,
,8.242001,-3.06E-11,,
,8.244001,-3.13E-11,,
,8.246001,-3.11E-11,,
,8.248001,-3.01E-11,,
,8.250001,-2.89E-11,,
,8.252001,-2.79E-11,,
,8.254001,-2.78E-11,,
,8.256001,-2.86E-11,,
,8.258001,-2.95E-11,,
,8.260001,-3.01E-11,,
,8.262001,-3.01E-11,,
,8.264001,-2.92E-11,,
,8.266001,-2.83E-11,,
,8.268001,-2.71E-11,,
,8.270001,-2.68E-11,,
,8.272001,-2.74E-11,,
,8.274001,-2.87E-11,,
,8.276001,-2.97E-11,,
,8.278001,-2.98E-11,,
,8.280001,-2.90E-11,,
,8.282001,-2.79E-11,,
,8.284001,-2.62E-11,,
,8.286001,-2.53E-11,,
,8.288001,-2.53E-11,,
,8.290001,-2.64E-11,,
,8.292001,-2.75E-11,,
,8.294001,-2.80E-11,,
,8.296001,-2.76E-11,,
,8.298001,-2.66E-11,,
,8.300001,-2.51E-11,,
,8.302001,-2.41E-11,,
,8.304001,-2.38E-11,,
,8.306001,-2.46E-11,,
,8.308001,-2.60E-11,,
,8.310001,-2.69E-11,,
,8.312001,-2.70E-11,,
,8.314001,-2.60E-11,,
,8.316001,-2.47E-11,,
,8.318001,-2.34E-11,,
,8.320001,-2.29E-11,,
,8.322001,-2.33E-11,,
,8.324001,-2.42E-11,,
,8.326001,-2.51E-11,,
,8.328001,-2.54E-11,,
,8.330001,-2.48E-11,,
,8.332001,-2.35E-11,,
,8.334001,-2.21E-11,,
,8.336001,-2.13E-11,,
,8.338001,-2.14E-11,,
,8.340001,-2.25E-11,,
,8.342001,-2.36E-11,,
,8.344001,-2.44E-11,,
,8.346001,-2.41E-11,,
,8.348001,-2.28E-11,,
,8.350001,-2.11E-11,,
,8.352001,-1.98E-11,,
,8.354001,-1.97E-11,,
,8.356001,-2.04E-11,,
,8.358001,-2.15E-11,,
,8.360001,-2.21E-11,,
,8.362001,-2.20E-11,,
,8.364001,-2.12E-11,,
,8.366001,-1.99E-11,,
,8.368001,-1.88E-11,,
,8.370001,-1.84E-11,,
,8.372001,-1.88E-11,,
,8.374001,-1.97E-11,,
,8.376001,-2.05E-11,,
,8.378001,-2.07E-11,,
,8.380001,-2.03E-11,,
,8.382001,-1.92E-11,,
,8.384001,-1.80E-11,,
,8.386001,-1.71E-11,,
,8.388001,-1.73E-11,,
,8.390001,-1.86E-11,,
,8.392001,-2.00E-11,,
,8.394001,-2.09E-11,,
,8.396001,-2.06E-11,,
,8.398001,-1.95E-11,,
,8.400001,-1.80E-11,,
,8.402001,-1.69E-11,,
,8.404001,-1.70E-11,,
,8.406001,-1.82E-11,,
,8.408001,-1.97E-11,,
,8.410001,-2.10E-11,,
,8.412001,-2.12E-11,,
,8.414001,-2.07E-11,,
,8.416001,-1.95E-11,,
,8.418001,-1.84E-11,,
,8.420001,-1.78E-11,,
,8.422001,-1.85E-11,,
,8.424001,-1.96E-11,,
,8.426001,-2.05E-11,,
,8.428001,-2.07E-11,,
,8.430001,-2.04E-11,,
,8.432001,-1.95E-11,,
,8.434001,-1.85E-11,,
,8.436001,-1.76E-11,,
,8.438001,-1.78E-11,,
,8.440001,-1.89E-11,,
,8.442001,-2.03E-11,,
,8.444001,-2.11E-11,,
,8.446001,-2.11E-11,,
,8.448001,-2.03E-11,,
,8.450001,-1.95E-11,,
,8.452001,-1.87E-11,,
,8.454001,-1.88E-11,,
,8.456001,-1.99E-11,,
,8.458001,-2.13E-11,,
,8.460001,-2.26E-11,,
,8.462001,-2.27E-11,,
,8.464001,-2.21E-11,,
,8.466001,-2.09E-11,,
,8.468001,-2.00E-11,,
,8.470001,-1.97E-11,,
,8.472001,-2.05E-11,,
,8.474001,-2.19E-11,,
,8.476001,-2.33E-11,,
,8.478001,-2.39E-11,,
,8.480001,-2.36E-11,,
,8.482001,-2.26E-11,,
,8.484001,-2.14E-11,,
,8.486001,-2.04E-11,,
,8.488001,-2.09E-11,,
,8.490001,-2.20E-11,,
,8.492001,-2.34E-11,,
,8.494001,-2.41E-11,,
,8.496001,-2.40E-11,,
,8.498001,-2.31E-11,,
,8.500001,-2.17E-11,,
,8.502001,-2.09E-11,,
,8.504001,-2.06E-11,,
,8.506001,-2.15E-11,,
,8.508001,-2.26E-11,,
,8.510001,-2.35E-11,,
,8.512001,-2.39E-11,,
,8.514001,-2.30E-11,,
,8.516001,-2.16E-11,,
,8.518001,-2.02E-11,,
,8.520001,-1.99E-11,,
,8.522001,-2.07E-11,,
,8.524001,-2.19E-11,,
,8.526001,-2.31E-11,,
,8.528001,-2.33E-11,,
,8.530001,-2.29E-11,,
,8.532001,-2.14E-11,,
,8.534001,-2.00E-11,,
,8.536001,-1.92E-11,,
,8.538001,-1.99E-11,,
,8.540001,-2.10E-11,,
,8.542001,-2.22E-11,,
,8.544001,-2.27E-11,,
,8.546001,-2.24E-11,,
,8.548001,-2.14E-11,,
,8.550001,-2.00E-11,,
,8.552001,-1.91E-11,,
,8.554001,-1.89E-11,,
,8.556001,-1.98E-11,,
,8.558001,-2.10E-11,,
,8.560001,-2.19E-11,,
,8.562001,-2.22E-11,,
,8.564001,-2.17E-11,,
,8.566001,-2.05E-11,,
,8.568001,-1.95E-11,,
,8.570001,-1.90E-11,,
,8.572001,-1.97E-11,,
,8.574001,-2.10E-11,,
,8.576001,-2.24E-11,,
,8.578001,-2.28E-11,,
,8.580001,-2.25E-11,,
,8.582001,-2.14E-11,,
,8.584001,-2.04E-11,,
,8.586001,-1.99E-11,,
,8.588001,-2.01E-11,,
,8.590001,-2.15E-11,,
,8.592001,-2.29E-11,,
,8.594001,-2.40E-11,,
,8.596001,-2.38E-11,,
,8.598001,-2.27E-11,,
,8.600001,-2.13E-11,,
,8.602001,-2.05E-11,,
,8.604001,-2.05E-11,,
,8.606001,-2.16E-11,,
,8.608001,-2.26E-11,,
,8.610001,-2.35E-11,,
,8.612001,-2.36E-11,,
,8.614001,-2.28E-11,,
,8.616001,-2.15E-11,,
,8.618001,-2.01E-11,,
,8.620001,-1.98E-11,,
,8.622001,-2.01E-11,,
,8.624001,-2.14E-11,,
,8.626001,-2.25E-11,,
,8.628001,-2.30E-11,,
,8.630001,-2.27E-11,,
,8.632001,-2.15E-11,,
,8.634001,-2.04E-11,,
,8.636001,-1.96E-11,,
,8.638001,-2.01E-11,,
,8.640001,-2.12E-11,,
,8.642001,-2.27E-11,,
,8.644001,-2.33E-11,,
,8.646001,-2.32E-11,,
,8.648001,-2.20E-11,,
,8.650001,-2.06E-11,,
,8.652001,-1.96E-11,,
,8.654001,-1.95E-11,,
,8.656001,-2.05E-11,,
,8.658001,-2.19E-11,,
,8.660001,-2.29E-11,,
,8.662001,-2.28E-11,,
,8.664001,-2.18E-11,,
,8.666001,-2.05E-11,,
,8.668001,-1.93E-11,,
,8.670001,-1.89E-11,,
,8.672001,-1.96E-11,,
,8.674001,-2.07E-11,,
,8.676001,-2.19E-11,,
,8.678001,-2.20E-11,,
,8.680001,-2.15E-11,,
,8.682001,-2.01E-11,,
,8.684001,-1.86E-11,,
,8.686001,-1.74E-11,,
,8.688001,-1.73E-11,,
,8.690001,-1.82E-11,,
,8.692001,-1.91E-11,,
,8.694001,-1.96E-11,,
,8.696001,-1.93E-11,,
,8.698001,-1.83E-11,,
,8.700001,-1.68E-11,,
,8.702001,-1.53E-11,,
,8.704001,-1.47E-11,,
,8.706001,-1.49E-11,,
,8.708001,-1.59E-11,,
,8.710001,-1.67E-11,,
,8.712001,-1.67E-11,,
,8.714001,-1.56E-11,,
,8.716001,-1.40E-11,,
,8.718001,-1.26E-11,,
,8.720001,-1.17E-11,,
,8.722001,-1.19E-11,,
,8.724001,-1.29E-11,,
,8.726001,-1.41E-11,,
,8.728001,-1.44E-11,,
,8.730001,-1.40E-11,,
,8.732001,-1.27E-11,,
,8.734001,-1.13E-11,,
,8.736001,-1.03E-11,,
,8.738001,-1.05E-11,,
,8.740001,-1.17E-11,,
,8.742001,-1.32E-11,,
,8.744001,-1.39E-11,,
,8.746001,-1.39E-11,,
,8.748001,-1.26E-11,,
,8.750001,-1.10E-11,,
,8.752001,-9.37E-12,,
,8.754001,-8.94E-12,,
,8.756001,-9.79E-12,,
,8.758001,-1.10E-11,,
,8.760001,-1.19E-11,,
,8.762001,-1.19E-11,,
,8.764001,-1.14E-11,,
,8.766001,-1.02E-11,,
,8.768001,-9.15E-12,,
,8.770001,-8.61E-12,,
,8.772001,-9.04E-12,,
,8.774001,-1.01E-11,,
,8.776001,-1.12E-11,,
,8.778001,-1.17E-11,,
,8.780001,-1.15E-11,,
,8.782001,-1.05E-11,,
,8.784001,-9.15E-12,,
,8.786001,-8.40E-12,,
,8.788001,-8.61E-12,,
,8.790001,-9.90E-12,,
,8.792001,-1.10E-11,,
,8.794001,-1.17E-11,,
,8.796001,-1.16E-11,,
,8.798001,-1.05E-11,,
,8.800001,-8.94E-12,,
,8.802001,-7.75E-12,,
,8.804001,-7.65E-12,,
,8.806001,-8.40E-12,,
,8.808001,-9.37E-12,,
,8.810001,-1.02E-11,,
,8.812001,-1.07E-11,,
,8.814001,-9.90E-12,,
,8.816001,-8.61E-12,,
,8.818001,-7.11E-12,,
,8.820001,-6.57E-12,,
,8.822001,-7.22E-12,,
,8.824001,-8.61E-12,,
,8.826001,-9.69E-12,,
,8.828001,-1.01E-11,,
,8.830001,-9.58E-12,,
,8.832001,-8.72E-12,,
,8.834001,-7.54E-12,,
,8.836001,-6.90E-12,,
,8.838001,-7.43E-12,,
,8.840001,-8.51E-12,,
,8.842001,-9.79E-12,,
,8.844001,-1.04E-11,,
,8.846001,-1.04E-11,,
,8.848001,-9.79E-12,,
,8.850001,-8.72E-12,,
,8.852001,-7.97E-12,,
,8.854001,-7.86E-12,,
,8.856001,-8.83E-12,,
,8.858001,-1.04E-11,,
,8.860001,-1.16E-11,,
,8.862001,-1.19E-11,,
,8.864001,-1.12E-11,,
,8.866001,-1.01E-11,,
,8.868001,-9.26E-12,,
,8.870001,-9.04E-12,,
,8.872001,-9.69E-12,,
,8.874001,-1.09E-11,,
,8.876001,-1.23E-11,,
,8.878001,-1.31E-11,,
,8.880001,-1.30E-11,,
,8.882001,-1.23E-11,,
,8.884001,-1.12E-11,,
,8.886001,-1.07E-11,,
,8.888001,-1.09E-11,,
,8.890001,-1.22E-11,,
,8.892001,-1.39E-11,,
,8.894001,-1.49E-11,,
,8.896001,-1.51E-11,,
,8.898001,-1.41E-11,,
,8.900001,-1.28E-11,,
,8.902001,-1.19E-11,,
,8.904001,-1.19E-11,,
,8.906001,-1.32E-11,,
,8.908001,-1.47E-11,,
,8.910001,-1.62E-11,,
,8.912001,-1.65E-11,,
,8.914001,-1.60E-11,,
,8.916001,-1.46E-11,,
,8.918001,-1.34E-11,,
,8.920001,-1.30E-11,,
,8.922001,-1.37E-11,,
,8.924001,-1.52E-11,,
,8.926001,-1.65E-11,,
,8.928001,-1.70E-11,,
,8.930001,-1.66E-11,,
,8.932001,-1.55E-11,,
,8.934001,-1.44E-11,,
,8.936001,-1.39E-11,,
,8.938001,-1.44E-11,,
,8.940001,-1.58E-11,,
,8.942001,-1.72E-11,,
,8.944001,-1.80E-11,,
,8.946001,-1.81E-11,,
,8.948001,-1.74E-11,,
,8.950001,-1.62E-11,,
,8.952001,-1.52E-11,,
,8.954001,-1.52E-11,,
,8.956001,-1.62E-11,,
,8.958001,-1.77E-11,,
,8.960001,-1.86E-11,,
,8.962001,-1.87E-11,,
,8.964001,-1.81E-11,,
,8.966001,-1.70E-11,,
,8.968001,-1.62E-11,,
,8.970001,-1.60E-11,,
,8.972001,-1.70E-11,,
,8.974001,-1.85E-11,,
,8.976001,-1.98E-11,,
,8.978001,-2.03E-11,,
,8.980001,-1.98E-11,,
,8.982001,-1.89E-11,,
,8.984001,-1.76E-11,,
,8.986001,-1.69E-11,,
,8.988001,-1.69E-11,,
,8.990001,-1.82E-11,,
,8.992001,-1.96E-11,,
,8.994001,-2.03E-11,,
,8.996001,-2.02E-11,,
,8.998001,-1.96E-11,,
,9.000001,-1.85E-11,,
,9.002001,-1.75E-11,,
,9.004001,-1.71E-11,,
,9.006001,-1.81E-11,,
,9.008001,-1.95E-11,,
,9.010001,-2.06E-11,,
,9.012001,-2.10E-11,,
,9.014001,-2.03E-11,,
,9.016001,-1.93E-11,,
,9.018001,-1.81E-11,,
,9.020001,-1.76E-11,,
,9.022001,-1.81E-11,,
,9.024001,-1.95E-11,,
,9.026001,-2.07E-11,,
,9.028001,-2.13E-11,,
,9.030001,-2.11E-11,,
,9.032001,-2.00E-11,,
,9.034001,-1.86E-11,,
,9.036001,-1.75E-11,,
,9.038001,-1.75E-11,,
,9.040001,-1.84E-11,,
,9.042001,-1.93E-11,,
,9.044001,-2.00E-11,,
,9.046001,-2.01E-11,,
,9.048001,-1.93E-11,,
,9.050001,-1.78E-11,,
,9.052001,-1.66E-11,,
,9.054001,-1.63E-11,,
,9.056001,-1.73E-11,,
,9.058001,-1.85E-11,,
,9.060001,-1.93E-11,,
,9.062001,-1.93E-11,,
,9.064001,-1.89E-11,,
,9.066001,-1.78E-11,,
,9.068001,-1.69E-11,,
,9.070001,-1.61E-11,,
,9.072001,-1.66E-11,,
,9.074001,-1.77E-11,,
,9.076001,-1.89E-11,,
,9.078001,-1.93E-11,,
,9.080001,-1.87E-11,,
,9.082001,-1.77E-11,,
,9.084001,-1.61E-11,,
,9.086001,-1.52E-11,,
,9.088001,-1.51E-11,,
,9.090001,-1.61E-11,,
,9.092001,-1.73E-11,,
,9.094001,-1.78E-11,,
,9.096001,-1.75E-11,,
,9.098001,-1.66E-11,,
,9.100001,-1.52E-11,,
,9.102001,-1.41E-11,,
,9.104001,-1.39E-11,,
,9.106001,-1.46E-11,,
,9.108001,-1.58E-11,,
,9.110001,-1.66E-11,,
,9.112001,-1.69E-11,,
,9.114001,-1.63E-11,,
,9.116001,-1.55E-11,,
,9.118001,-1.42E-11,,
,9.120001,-1.37E-11,,
,9.122001,-1.38E-11,,
,9.124001,-1.48E-11,,
,9.126001,-1.59E-11,,
,9.128001,-1.65E-11,,
,9.130001,-1.59E-11,,
,9.132001,-1.46E-11,,
,9.134001,-1.34E-11,,
,9.136001,-1.29E-11,,
,9.138001,-1.33E-11,,
,9.140001,-1.44E-11,,
,9.142001,-1.57E-11,,
,9.144001,-1.63E-11,,
,9.146001,-1.61E-11,,
,9.148001,-1.52E-11,,
,9.150001,-1.38E-11,,
,9.152001,-1.25E-11,,
,9.154001,-1.19E-11,,
,9.156001,-1.27E-11,,
,9.158001,-1.39E-11,,
,9.160001,-1.47E-11,,
,9.162001,-1.46E-11,,
,9.164001,-1.39E-11,,
,9.166001,-1.25E-11,,
,9.168001,-1.12E-11,,
,9.170001,-1.05E-11,,
,9.172001,-1.10E-11,,
,9.174001,-1.22E-11,,
,9.176001,-1.32E-11,,
,9.178001,-1.37E-11,,
,9.180001,-1.32E-11,,
,9.182001,-1.22E-11,,
,9.184001,-1.09E-11,,
,9.186001,-1.00E-11,,
,9.188001,-1.00E-11,,
,9.190001,-1.12E-11,,
,9.192001,-1.22E-11,,
,9.194001,-1.27E-11,,
,9.196001,-1.22E-11,,
,9.198001,-1.14E-11,,
,9.200001,-1.01E-11,,
,9.202001,-9.26E-12,,
,9.204001,-8.83E-12,,
,9.206001,-9.58E-12,,
,9.208001,-1.07E-11,,
,9.210001,-1.19E-11,,
,9.212001,-1.20E-11,,
,9.214001,-1.14E-11,,
,9.216001,-9.79E-12,,
,9.218001,-8.72E-12,,
,9.220001,-8.18E-12,,
,9.222001,-8.61E-12,,
,9.224001,-9.58E-12,,
,9.226001,-1.05E-11,,
,9.228001,-1.12E-11,,
,9.230001,-1.10E-11,,
,9.232001,-9.69E-12,,
,9.234001,-8.29E-12,,
,9.236001,-7.33E-12,,
,9.238001,-7.86E-12,,
,9.240001,-9.04E-12,,
,9.242001,-1.04E-11,,
,9.244001,-1.12E-11,,
,9.246001,-1.11E-11,,
,9.248001,-1.03E-11,,
,9.250001,-9.15E-12,,
,9.252001,-8.29E-12,,
,9.254001,-8.18E-12,,
,9.256001,-9.04E-12,,
,9.258001,-1.05E-11,,
,9.260001,-1.17E-11,,
,9.262001,-1.20E-11,,
,9.264001,-1.14E-11,,
,9.266001,-1.03E-11,,
,9.268001,-9.37E-12,,
,9.270001,-8.83E-12,,
,9.272001,-9.26E-12,,
,9.274001,-1.08E-11,,
,9.276001,-1.22E-11,,
,9.278001,-1.30E-11,,
,9.280001,-1.28E-11,,
,9.282001,-1.20E-11,,
,9.284001,-1.09E-11,,
,9.286001,-1.00E-11,,
,9.288001,-1.02E-11,,
,9.290001,-1.14E-11,,
,9.292001,-1.27E-11,,
,9.294001,-1.37E-11,,
,9.296001,-1.38E-11,,
,9.298001,-1.30E-11,,
,9.300001,-1.16E-11,,
,9.302001,-1.07E-11,,
,9.304001,-1.04E-11,,
,9.306001,-1.14E-11,,
,9.308001,-1.26E-11,,
,9.310001,-1.40E-11,,
,9.312001,-1.41E-11,,
,9.314001,-1.36E-11,,
,9.316001,-1.24E-11,,
,9.318001,-1.14E-11,,
,9.320001,-1.08E-11,,
,9.322001,-1.12E-11,,
,9.324001,-1.25E-11,,
,9.326001,-1.41E-11,,
,9.328001,-1.47E-11,,
,9.330001,-1.42E-11,,
,9.332001,-1.32E-11,,
,9.334001,-1.18E-11,,
,9.336001,-1.14E-11,,
,9.338001,-1.15E-11,,
,9.340001,-1.29E-11,,
,9.342001,-1.42E-11,,
,9.344001,-1.49E-11,,
,9.346001,-1.48E-11,,
,9.348001,-1.41E-11,,
,9.350001,-1.27E-11,,
,9.352001,-1.16E-11,,
,9.354001,-1.14E-11,,
,9.356001,-1.26E-11,,
,9.358001,-1.40E-11,,
,9.360001,-1.51E-11,,
,9.362001,-1.54E-11,,
,9.364001,-1.51E-11,,
,9.366001,-1.41E-11,,
,9.368001,-1.32E-11,,
,9.370001,-1.27E-11,,
,9.372001,-1.34E-11,,
,9.374001,-1.47E-11,,
,9.376001,-1.61E-11,,
,9.378001,-1.68E-11,,
,9.380001,-1.65E-11,,
,9.382001,-1.58E-11,,
,9.384001,-1.48E-11,,
,9.386001,-1.42E-11,,
,9.388001,-1.41E-11,,
,9.390001,-1.53E-11,,
,9.392001,-1.69E-11,,
,9.394001,-1.82E-11,,
,9.396001,-1.81E-11,,
,9.398001,-1.73E-11,,
,9.400001,-1.60E-11,,
,9.402001,-1.54E-11,,
,9.404001,-1.54E-11,,
,9.406001,-1.65E-11,,
,9.408001,-1.78E-11,,
,9.410001,-1.90E-11,,
,9.412001,-1.95E-11,,
,9.414001,-1.87E-11,,
,9.416001,-1.77E-11,,
,9.418001,-1.66E-11,,
,9.420001,-1.62E-11,,
,9.422001,-1.65E-11,,
,9.424001,-1.77E-11,,
,9.426001,-1.90E-11,,
,9.428001,-1.98E-11,,
,9.430001,-1.92E-11,,
,9.432001,-1.85E-11,,
,9.434001,-1.74E-11,,
,9.436001,-1.70E-11,,
,9.438001,-1.71E-11,,
,9.440001,-1.80E-11,,
,9.442001,-1.92E-11,,
,9.444001,-2.00E-11,,
,9.446001,-2.01E-11,,
,9.448001,-1.93E-11,,
,9.450001,-1.80E-11,,
,9.452001,-1.69E-11,,
,9.454001,-1.65E-11,,
,9.456001,-1.74E-11,,
,9.458001,-1.88E-11,,
,9.460001,-2.02E-11,,
,9.462001,-2.05E-11,,
,9.464001,-1.98E-11,,
,9.466001,-1.83E-11,,
,9.468001,-1.72E-11,,
,9.470001,-1.68E-11,,
,9.472001,-1.73E-11,,
,9.474001,-1.85E-11,,
,9.476001,-1.97E-11,,
,9.478001,-2.03E-11,,
,9.480001,-1.98E-11,,
,9.482001,-1.88E-11,,
,9.484001,-1.74E-11,,
,9.486001,-1.66E-11,,
,9.488001,-1.67E-11,,
,9.490001,-1.78E-11,,
,9.492001,-1.91E-11,,
,9.494001,-2.01E-11,,
,9.496001,-2.01E-11,,
,9.498001,-1.95E-11,,
,9.500001,-1.82E-11,,
,9.502001,-1.71E-11,,
,9.504001,-1.68E-11,,
,9.506001,-1.74E-11,,
,9.508001,-1.86E-11,,
,9.510001,-1.98E-11,,
,9.512001,-2.01E-11,,
,9.514001,-1.99E-11,,
,9.516001,-1.88E-11,,
,9.518001,-1.78E-11,,
,9.520001,-1.72E-11,,
,9.522001,-1.81E-11,,
,9.524001,-1.96E-11,,
,9.526001,-2.11E-11,,
,9.528001,-2.15E-11,,
,9.530001,-2.11E-11,,
,9.532001,-2.00E-11,,
,9.534001,-1.88E-11,,
,9.536001,-1.80E-11,,
,9.538001,-1.82E-11,,
,9.540001,-1.92E-11,,
,9.542001,-2.07E-11,,
,9.544001,-2.17E-11,,
,9.546001,-2.18E-11,,
,9.548001,-2.09E-11,,
,9.550001,-1.96E-11,,
,9.552001,-1.83E-11,,
,9.554001,-1.80E-11,,
,9.556001,-1.86E-11,,
,9.558001,-1.98E-11,,
,9.560001,-2.07E-11,,
,9.562001,-2.09E-11,,
,9.564001,-2.03E-11,,
,9.566001,-1.92E-11,,
,9.568001,-1.83E-11,,
,9.570001,-1.77E-11,,
,9.572001,-1.82E-11,,
,9.574001,-1.90E-11,,
,9.576001,-2.01E-11,,
,9.578001,-2.06E-11,,
,9.580001,-2.06E-11,,
,9.582001,-1.97E-11,,
,9.584001,-1.83E-11,,
,9.586001,-1.72E-11,,
,9.588001,-1.72E-11,,
,9.590001,-1.83E-11,,
,9.592001,-1.96E-11,,
,9.594001,-2.05E-11,,
,9.596001,-2.07E-11,,
,9.598001,-1.99E-11,,
,9.600001,-1.83E-11,,
,9.602001,-1.69E-11,,
,9.604001,-1.65E-11,,
,9.606001,-1.72E-11,,
,9.608001,-1.86E-11,,
,9.610001,-1.98E-11,,
,9.612001,-2.02E-11,,
,9.614001,-1.96E-11,,
,9.616001,-1.84E-11,,
,9.618001,-1.71E-11,,
,9.620001,-1.62E-11,,
,9.622001,-1.68E-11,,
,9.624001,-1.80E-11,,
,9.626001,-1.92E-11,,
,9.628001,-1.98E-11,,
,9.630001,-1.97E-11,,
,9.632001,-1.89E-11,,
,9.634001,-1.77E-11,,
,9.636001,-1.69E-11,,
,9.638001,-1.70E-11,,
,9.640001,-1.80E-11,,
,9.642001,-1.93E-11,,
,9.644001,-2.03E-11,,
,9.646001,-2.05E-11,,
,9.648001,-2.00E-11,,
,9.650001,-1.88E-11,,
,9.652001,-1.80E-11,,
,9.654001,-1.81E-11,,
,9.656001,-1.91E-11,,
,9.658001,-2.04E-11,,
,9.660001,-2.14E-11,,
,9.662001,-2.17E-11,,
,9.664001,-2.13E-11,,
,9.666001,-2.00E-11,,
,9.668001,-1.88E-11,,
,9.670001,-1.83E-11,,
,9.672001,-1.91E-11,,
,9.674001,-2.06E-11,,
,9.676001,-2.21E-11,,
,9.678001,-2.25E-11,,
,9.680001,-2.20E-11,,
,9.682001,-2.10E-11,,
,9.684001,-1.98E-11,,
,9.686001,-1.88E-11,,
,9.688001,-1.87E-11,,
,9.690001,-1.95E-11,,
,9.692001,-2.09E-11,,
,9.694001,-2.18E-11,,
,9.696001,-2.21E-11,,
,9.698001,-2.16E-11,,
,9.700001,-2.06E-11,,
,9.702001,-1.98E-11,,
,9.704001,-1.97E-11,,
,9.706001,-2.06E-11,,
,9.708001,-2.25E-11,,
,9.710001,-2.39E-11,,
,9.712001,-2.44E-11,,
,9.714001,-2.38E-11,,
,9.716001,-2.27E-11,,
,9.718001,-2.16E-11,,
,9.720001,-2.15E-11,,
,9.722001,-2.21E-11,,
,9.724001,-2.34E-11,,
,9.726001,-2.46E-11,,
,9.728001,-2.53E-11,,
,9.730001,-2.50E-11,,
,9.732001,-2.40E-11,,
,9.734001,-2.26E-11,,
,9.736001,-2.17E-11,,
,9.738001,-2.18E-11,,
,9.740001,-2.30E-11,,
,9.742001,-2.43E-11,,
,9.744001,-2.49E-11,,
,9.746001,-2.49E-11,,
,9.748001,-2.40E-11,,
,9.750001,-2.27E-11,,
,9.752001,-2.14E-11,,
,9.754001,-2.11E-11,,
,9.756001,-2.17E-11,,
,9.758001,-2.29E-11,,
,9.760001,-2.40E-11,,
,9.762001,-2.43E-11,,
,9.764001,-2.35E-11,,
,9.766001,-2.24E-11,,
,9.768001,-2.10E-11,,
,9.770001,-2.04E-11,,
,9.772001,-2.07E-11,,
,9.774001,-2.19E-11,,
,9.776001,-2.29E-11,,
,9.778001,-2.33E-11,,
,9.780001,-2.30E-11,,
,9.782001,-2.19E-11,,
,9.784001,-2.04E-11,,
,9.786001,-1.95E-11,,
,9.788001,-1.97E-11,,
,9.790001,-2.07E-11,,
,9.792001,-2.19E-11,,
,9.794001,-2.27E-11,,
,9.796001,-2.28E-11,,
,9.798001,-2.17E-11,,
,9.800001,-2.04E-11,,
,9.802001,-1.92E-11,,
,9.804001,-1.88E-11,,
,9.806001,-1.92E-11,,
,9.808001,-2.02E-11,,
,9.810001,-2.15E-11,,
,9.812001,-2.18E-11,,
,9.814001,-2.13E-11,,
,9.816001,-2.01E-11,,
,9.818001,-1.89E-11,,
,9.820001,-1.81E-11,,
,9.822001,-1.83E-11,,
,9.824001,-1.92E-11,,
,9.826001,-2.07E-11,,
,9.828001,-2.13E-11,,
,9.830001,-2.12E-11,,
,9.832001,-2.00E-11,,
,9.834001,-1.86E-11,,
,9.836001,-1.74E-11,,
,9.838001,-1.73E-11,,
,9.840001,-1.83E-11,,
,9.842001,-1.95E-11,,
,9.844001,-2.04E-11,,
,9.846001,-2.04E-11,,
,9.848001,-1.98E-11,,
,9.850001,-1.84E-11,,
,9.852001,-1.74E-11,,
,9.854001,-1.70E-11,,
,9.856001,-1.80E-11,,
,9.858001,-1.91E-11,,
,9.860001,-2.02E-11,,
,9.862001,-2.02E-11,,
,9.864001,-1.97E-11,,
,9.866001,-1.87E-11,,
,9.868001,-1.74E-11,,
,9.870001,-1.68E-11,,
,9.872001,-1.72E-11,,
,9.874001,-1.85E-11,,
,9.876001,-1.98E-11,,
,9.878001,-2.03E-11,,
,9.880001,-2.01E-11,,
,9.882001,-1.88E-11,,
,9.884001,-1.72E-11,,
,9.886001,-1.60E-11,,
,9.888001,-1.56E-11,,
,9.890001,-1.63E-11,,
,9.892001,-1.75E-11,,
,9.894001,-1.86E-11,,
,9.896001,-1.87E-11,,
,9.898001,-1.78E-11,,
,9.900001,-1.67E-11,,
,9.902001,-1.57E-11,,
,9.904001,-1.55E-11,,
,9.906001,-1.61E-11,,
,9.908001,-1.72E-11,,
,9.910001,-1.83E-11,,
,9.912001,-1.87E-11,,
,9.914001,-1.81E-11,,
,9.916001,-1.69E-11,,
,9.918001,-1.57E-11,,
,9.920001,-1.54E-11,,
,9.922001,-1.59E-11,,
,9.924001,-1.70E-11,,
,9.926001,-1.82E-11,,
,9.928001,-1.88E-11,,
,9.930001,-1.86E-11,,
,9.932001,-1.76E-11,,
,9.934001,-1.61E-11,,
,9.936001,-1.54E-11,,
,9.938001,-1.52E-11,,
,9.940001,-1.61E-11,,
,9.942001,-1.71E-11,,
,9.944001,-1.80E-11,,
,9.946001,-1.77E-11,,
,9.948001,-1.70E-11,,
,9.950001,-1.58E-11,,
,9.952001,-1.51E-11,,
,9.954001,-1.47E-11,,
,9.956001,-1.55E-11,,
,9.958001,-1.68E-11,,
,9.960001,-1.82E-11,,
,9.962001,-1.86E-11,,
,9.964001,-1.81E-11,,
,9.966001,-1.67E-11,,
,9.968001,-1.54E-11,,
,9.970001,-1.47E-11,,
,9.972001,-1.52E-11,,
,9.974001,-1.63E-11,,
,9.976001,-1.74E-11,,
,9.978001,-1.81E-11,,
,9.980001,-1.76E-11,,
,9.982001,-1.63E-11,,
,9.984001,-1.48E-11,,
,9.986001,-1.38E-11,,
,9.988001,-1.39E-11,,
,9.990001,-1.46E-11,,
,9.992001,-1.57E-11,,
,9.994001,-1.61E-11,,
,9.996001,-1.57E-11,,
,9.998001,-1.46E-11,,
,10.000001,-1.32E-11,,
,10.002001,-1.23E-11,,
,10.004001,-1.18E-11,,
,10.006001,-1.26E-11,,
,10.008001,-1.37E-11,,
,10.010001,-1.48E-11,,
,10.012001,-1.51E-11,,
,10.014001,-1.43E-11,,
,10.016001,-1.28E-11,,
,10.018001,-1.11E-11,,
,10.020001,-1.03E-11,,
,10.022001,-1.04E-11,,
,10.024001,-1.17E-11,,
,10.026001,-1.29E-11,,
,10.028001,-1.36E-11,,
,10.030001,-1.32E-11,,
,10.032001,-1.24E-11,,
,10.034001,-1.10E-11,,
,10.036001,-9.79E-12,,
,10.038001,-9.37E-12,,
,10.040001,-1.02E-11,,
,10.042001,-1.16E-11,,
,10.044001,-1.27E-11,,
,10.046001,-1.28E-11,,
,10.048001,-1.20E-11,,
,10.050001,-1.05E-11,,
,10.052001,-9.47E-12,,
,10.054001,-9.04E-12,,
,10.056001,-9.90E-12,,
,10.058001,-1.11E-11,,
,10.060001,-1.20E-11,,
,10.062001,-1.24E-11,,
,10.064001,-1.17E-11,,
,10.066001,-1.09E-11,,
,10.068001,-9.79E-12,,
,10.070001,-9.37E-12,,
,10.072001,-1.00E-11,,
,10.074001,-1.10E-11,,
,10.076001,-1.23E-11,,
,10.078001,-1.28E-11,,
,10.080001,-1.29E-11,,
,10.082001,-1.25E-11,,
,10.084001,-1.14E-11,,
,10.086001,-1.05E-11,,
,10.088001,-1.04E-11,,
,10.090001,-1.13E-11,,
,10.092001,-1.27E-11,,
,10.094001,-1.36E-11,,
,10.096001,-1.36E-11,,
,10.098001,-1.29E-11,,
,10.100001,-1.17E-11,,
,10.102001,-1.09E-11,,
,10.104001,-1.04E-11,,
,10.106001,-1.13E-11,,
,10.108001,-1.27E-11,,
,10.110001,-1.40E-11,,
,10.112001,-1.44E-11,,
,10.114001,-1.39E-11,,
,10.116001,-1.28E-11,,
,10.118001,-1.15E-11,,
,10.120001,-1.10E-11,,
,10.122001,-1.14E-11,,
,10.124001,-1.28E-11,,
,10.126001,-1.41E-11,,
,10.128001,-1.48E-11,,
,10.130001,-1.45E-11,,
,10.132001,-1.36E-11,,
,10.134001,-1.23E-11,,
,10.136001,-1.15E-11,,
,10.138001,-1.16E-11,,
,10.140001,-1.27E-11,,
,10.142001,-1.39E-11,,
,10.144001,-1.46E-11,,
,10.146001,-1.46E-11,,
,10.148001,-1.39E-11,,
,10.150001,-1.28E-11,,
,10.152001,-1.17E-11,,
,10.154001,-1.14E-11,,
,10.156001,-1.19E-11,,
,10.158001,-1.32E-11,,
,10.160001,-1.42E-11,,
,10.162001,-1.46E-11,,
,10.164001,-1.41E-11,,
,10.166001,-1.32E-11,,
,10.168001,-1.23E-11,,
,10.170001,-1.18E-11,,
,10.172001,-1.22E-11,,
,10.174001,-1.33E-11,,
,10.176001,-1.46E-11,,
,10.178001,-1.55E-11,,
,10.180001,-1.53E-11,,
,10.182001,-1.43E-11,,
,10.184001,-1.28E-11,,
,10.186001,-1.17E-11,,
,10.188001,-1.16E-11,,
,10.190001,-1.27E-11,,
,10.192001,-1.41E-11,,
,10.194001,-1.48E-11,,
,10.196001,-1.47E-11,,
,10.198001,-1.42E-11,,
,10.200001,-1.30E-11,,
,10.202001,-1.22E-11,,
,10.204001,-1.18E-11,,
,10.206001,-1.29E-11,,
,10.208001,-1.43E-11,,
,10.210001,-1.56E-11,,
,10.212001,-1.60E-11,,
,10.214001,-1.57E-11,,
,10.216001,-1.47E-11,,
,10.218001,-1.38E-11,,
,10.220001,-1.37E-11,,
,10.222001,-1.41E-11,,
,10.224001,-1.56E-11,,
,10.226001,-1.69E-11,,
,10.228001,-1.78E-11,,
,10.230001,-1.75E-11,,
,10.232001,-1.66E-11,,
,10.234001,-1.53E-11,,
,10.236001,-1.44E-11,,
,10.238001,-1.45E-11,,
,10.240001,-1.57E-11,,
,10.242001,-1.71E-11,,
,10.244001,-1.80E-11,,
,10.246001,-1.78E-11,,
,10.248001,-1.72E-11,,
,10.250001,-1.60E-11,,
,10.252001,-1.49E-11,,
,10.254001,-1.46E-11,,
,10.256001,-1.54E-11,,
,10.258001,-1.69E-11,,
,10.260001,-1.81E-11,,
,10.262001,-1.83E-11,,
,10.264001,-1.76E-11,,
,10.266001,-1.63E-11,,
,10.268001,-1.52E-11,,
,10.270001,-1.44E-11,,
,10.272001,-1.46E-11,,
,10.274001,-1.56E-11,,
,10.276001,-1.69E-11,,
,10.278001,-1.75E-11,,
,10.280001,-1.75E-11,,
,10.282001,-1.68E-11,,
,10.284001,-1.57E-11,,
,10.286001,-1.47E-11,,
,10.288001,-1.45E-11,,
,10.290001,-1.55E-11,,
,10.292001,-1.70E-11,,
,10.294001,-1.80E-11,,
,10.296001,-1.80E-11,,
,10.298001,-1.72E-11,,
,10.300001,-1.60E-11,,
,10.302001,-1.53E-11,,
,10.304001,-1.52E-11,,
,10.306001,-1.62E-11,,
,10.308001,-1.75E-11,,
,10.310001,-1.87E-11,,
,10.312001,-1.90E-11,,
,10.314001,-1.86E-11,,
,10.316001,-1.74E-11,,
,10.318001,-1.60E-11,,
,10.320001,-1.54E-11,,
,10.322001,-1.57E-11,,
,10.324001,-1.72E-11,,
,10.326001,-1.85E-11,,
,10.328001,-1.95E-11,,
,10.330001,-1.92E-11,,
,10.332001,-1.84E-11,,
,10.334001,-1.70E-11,,
,10.336001,-1.61E-11,,
,10.338001,-1.61E-11,,
,10.340001,-1.71E-11,,
,10.342001,-1.86E-11,,
,10.344001,-1.98E-11,,
,10.346001,-2.03E-11,,
,10.348001,-1.96E-11,,
,10.350001,-1.83E-11,,
,10.352001,-1.70E-11,,
,10.354001,-1.68E-11,,
,10.356001,-1.76E-11,,
,10.358001,-1.90E-11,,
,10.360001,-2.02E-11,,
,10.362001,-2.09E-11,,
,10.364001,-2.05E-11,,
,10.366001,-1.95E-11,,
,10.368001,-1.83E-11,,
,10.370001,-1.78E-11,,
,10.372001,-1.83E-11,,
,10.374001,-1.92E-11,,
,10.376001,-2.04E-11,,
,10.378001,-2.14E-11,,
,10.380001,-2.13E-11,,
,10.382001,-2.04E-11,,
,10.384001,-1.90E-11,,
,10.386001,-1.85E-11,,
,10.388001,-1.86E-11,,
,10.390001,-1.96E-11,,
,10.392001,-2.06E-11,,
,10.394001,-2.15E-11,,
,10.396001,-2.16E-11,,
,10.398001,-2.10E-11,,
,10.400001,-1.98E-11,,
,10.402001,-1.86E-11,,
,10.404001,-1.82E-11,,
,10.406001,-1.88E-11,,
,10.408001,-2.00E-11,,
,10.410001,-2.13E-11,,
,10.412001,-2.17E-11,,
,10.414001,-2.14E-11,,
,10.416001,-2.01E-11,,
,10.418001,-1.87E-11,,
,10.420001,-1.81E-11,,
,10.422001,-1.86E-11,,
,10.424001,-1.99E-11,,
,10.426001,-2.10E-11,,
,10.428001,-2.14E-11,,
,10.430001,-2.11E-11,,
,10.432001,-2.02E-11,,
,10.434001,-1.90E-11,,
,10.436001,-1.83E-11,,
,10.438001,-1.83E-11,,
,10.440001,-1.93E-11,,
,10.442001,-2.05E-11,,
,10.444001,-2.15E-11,,
,10.446001,-2.15E-11,,
,10.448001,-2.07E-11,,
,10.450001,-1.95E-11,,
,10.452001,-1.82E-11,,
,10.454001,-1.78E-11,,
,10.456001,-1.85E-11,,
,10.458001,-2.00E-11,,
,10.460001,-2.11E-11,,
,10.462001,-2.14E-11,,
,10.464001,-2.06E-11,,
,10.466001,-1.95E-11,,
,10.468001,-1.82E-11,,
,10.470001,-1.76E-11,,
,10.472001,-1.77E-11,,
,10.474001,-1.90E-11,,
,10.476001,-2.02E-11,,
,10.478001,-2.13E-11,,
,10.480001,-2.12E-11,,
,10.482001,-2.02E-11,,
,10.484001,-1.87E-11,,
,10.486001,-1.76E-11,,
,10.488001,-1.76E-11,,
,10.490001,-1.85E-11,,
,10.492001,-1.98E-11,,
,10.494001,-2.06E-11,,
,10.496001,-2.11E-11,,
,10.498001,-2.03E-11,,
,10.500001,-1.91E-11,,
,10.502001,-1.76E-11,,
,10.504001,-1.74E-11,,
,10.506001,-1.82E-11,,
,10.508001,-1.98E-11,,
,10.510001,-2.07E-11,,
,10.512001,-2.12E-11,,
,10.514001,-2.07E-11,,
,10.516001,-1.98E-11,,
,10.518001,-1.84E-11,,
,10.520001,-1.75E-11,,
,10.522001,-1.77E-11,,
,10.524001,-1.89E-11,,
,10.526001,-2.01E-11,,
,10.528001,-2.07E-11,,
,10.530001,-2.07E-11,,
,10.532001,-2.01E-11,,
,10.534001,-1.89E-11,,
,10.536001,-1.82E-11,,
,10.538001,-1.78E-11,,
,10.540001,-1.91E-11,,
,10.542001,-2.03E-11,,
,10.544001,-2.17E-11,,
,10.546001,-2.18E-11,,
,10.548001,-2.14E-11,,
,10.550001,-2.02E-11,,
,10.552001,-1.91E-11,,
,10.554001,-1.88E-11,,
,10.556001,-1.96E-11,,
,10.558001,-2.11E-11,,
,10.560001,-2.20E-11,,
,10.562001,-2.24E-11,,
,10.564001,-2.16E-11,,
,10.566001,-2.06E-11,,
,10.568001,-1.96E-11,,
,10.570001,-1.90E-11,,
,10.572001,-1.95E-11,,
,10.574001,-2.06E-11,,
,10.576001,-2.20E-11,,
,10.578001,-2.28E-11,,
,10.580001,-2.27E-11,,
,10.582001,-2.18E-11,,
,10.584001,-2.03E-11,,
,10.586001,-1.91E-11,,
,10.588001,-1.89E-11,,
,10.590001,-1.98E-11,,
,10.592001,-2.11E-11,,
,10.594001,-2.22E-11,,
,10.596001,-2.24E-11,,
,10.598001,-2.16E-11,,
,10.600001,-2.02E-11,,
,10.602001,-1.93E-11,,
,10.604001,-1.89E-11,,
,10.606001,-1.95E-11,,
,10.608001,-2.06E-11,,
,10.610001,-2.19E-11,,
,10.612001,-2.25E-11,,
,10.614001,-2.19E-11,,
,10.616001,-2.09E-11,,
,10.618001,-1.95E-11,,
,10.620001,-1.87E-11,,
,10.622001,-1.89E-11,,
,10.624001,-2.00E-11,,
,10.626001,-2.15E-11,,
,10.628001,-2.24E-11,,
,10.630001,-2.22E-11,,
,10.632001,-2.12E-11,,
,10.634001,-1.99E-11,,
,10.636001,-1.90E-11,,
,10.638001,-1.89E-11,,
,10.640001,-1.99E-11,,
,10.642001,-2.11E-11,,
,10.644001,-2.20E-11,,
,10.646001,-2.19E-11,,
,10.648001,-2.13E-11,,
,10.650001,-2.00E-11,,
,10.652001,-1.88E-11,,
,10.654001,-1.83E-11,,
,10.656001,-1.87E-11,,
,10.658001,-1.98E-11,,
,10.660001,-2.10E-11,,
,10.662001,-2.11E-11,,
,10.664001,-2.06E-11,,
,10.666001,-1.90E-11,,
,10.668001,-1.77E-11,,
,10.670001,-1.68E-11,,
,10.672001,-1.70E-11,,
,10.674001,-1.81E-11,,
,10.676001,-1.92E-11,,
,10.678001,-2.02E-11,,
,10.680001,-2.01E-11,,
,10.682001,-1.95E-11,,
,10.684001,-1.80E-11,,
,10.686001,-1.72E-11,,
,10.688001,-1.70E-11,,
,10.690001,-1.80E-11,,
,10.692001,-1.91E-11,,
,10.694001,-2.00E-11,,
,10.696001,-2.00E-11,,
,10.698001,-1.89E-11,,
,10.700001,-1.74E-11,,
,10.702001,-1.61E-11,,
,10.704001,-1.59E-11,,
,10.706001,-1.65E-11,,
,10.708001,-1.76E-11,,
,10.710001,-1.87E-11,,
,10.712001,-1.92E-11,,
,10.714001,-1.89E-11,,
,10.716001,-1.77E-11,,
,10.718001,-1.61E-11,,
,10.720001,-1.53E-11,,
,10.722001,-1.55E-11,,
,10.724001,-1.68E-11,,
,10.726001,-1.78E-11,,
,10.728001,-1.85E-11,,
,10.730001,-1.85E-11,,
,10.732001,-1.75E-11,,
,10.734001,-1.60E-11,,
,10.736001,-1.48E-11,,
,10.738001,-1.49E-11,,
,10.740001,-1.61E-11,,
,10.742001,-1.75E-11,,
,10.744001,-1.85E-11,,
,10.746001,-1.86E-11,,
,10.748001,-1.78E-11,,
,10.750001,-1.66E-11,,
,10.752001,-1.55E-11,,
,10.754001,-1.52E-11,,
,10.756001,-1.59E-11,,
,10.758001,-1.71E-11,,
,10.760001,-1.83E-11,,
,10.762001,-1.88E-11,,
,10.764001,-1.85E-11,,
,10.766001,-1.75E-11,,
,10.768001,-1.62E-11,,
,10.770001,-1.58E-11,,
,10.772001,-1.61E-11,,
,10.774001,-1.74E-11,,
,10.776001,-1.87E-11,,
,10.778001,-1.93E-11,,
,10.780001,-1.92E-11,,
,10.782001,-1.82E-11,,
,10.784001,-1.69E-11,,
,10.786001,-1.59E-11,,
,10.788001,-1.60E-11,,
,10.790001,-1.72E-11,,
,10.792001,-1.85E-11,,
,10.794001,-1.93E-11,,
,10.796001,-1.95E-11,,
,10.798001,-1.89E-11,,
,10.800001,-1.75E-11,,
,10.802001,-1.61E-11,,
,10.804001,-1.52E-11,,
,10.806001,-1.56E-11,,
,10.808001,-1.71E-11,,
,10.810001,-1.84E-11,,
,10.812001,-1.87E-11,,
,10.814001,-1.78E-11,,
,10.816001,-1.65E-11,,
,10.818001,-1.52E-11,,
,10.820001,-1.42E-11,,
,10.822001,-1.42E-11,,
,10.824001,-1.48E-11,,
,10.826001,-1.58E-11,,
,10.828001,-1.66E-11,,
,10.830001,-1.65E-11,,
,10.832001,-1.55E-11,,
,10.834001,-1.41E-11,,
,10.836001,-1.30E-11,,
,10.838001,-1.28E-11,,
,10.840001,-1.37E-11,,
,10.842001,-1.49E-11,,
,10.844001,-1.60E-11,,
,10.846001,-1.62E-11,,
,10.848001,-1.56E-11,,
,10.850001,-1.44E-11,,
,10.852001,-1.29E-11,,
,10.854001,-1.24E-11,,
,10.856001,-1.27E-11,,
,10.858001,-1.41E-11,,
,10.860001,-1.54E-11,,
,10.862001,-1.59E-11,,
,10.864001,-1.56E-11,,
,10.866001,-1.45E-11,,
,10.868001,-1.33E-11,,
,10.870001,-1.25E-11,,
,10.872001,-1.27E-11,,
,10.874001,-1.37E-11,,
,10.876001,-1.48E-11,,
,10.878001,-1.54E-11,,
,10.880001,-1.52E-11,,
,10.882001,-1.42E-11,,
,10.884001,-1.31E-11,,
,10.886001,-1.24E-11,,
,10.888001,-1.25E-11,,
