5/8/2019, 5:33:58 PM ,,,
 Current Sensitivity ,1.00E-09,,,
 This file comes from It only measurement ,0.00E+00,,,
 Sampling rate ,500,,,
 Number of samples per channel ,-1,,,
 No filter from Labview , , , ,
 , ,,,
 ***End_of_Header*** ,,,,
 , Time , Current , Filtered Current , 
,2.41E-06,3.50E-12,,
,0.002002,7.00E-12,,
,0.004002,1.04E-11,,
,0.006002,9.96E-12,,
,0.008002,8.99E-12,,
,0.010002,7.06E-12,,
,0.012002,4.05E-12,,
,0.014002,7.26E-13,,
,0.016002,-2.17E-12,,
,0.018002,-3.89E-12,,
,0.020002,-4.96E-12,,
,0.022002,-5.39E-12,,
,0.024002,-6.04E-12,,
,0.026002,-7.65E-12,,
,0.028002,-1.03E-11,,
,0.030002,-1.36E-11,,
,0.032002,-1.60E-11,,
,0.034002,-1.78E-11,,
,0.036002,-1.90E-11,,
,0.038002,-1.97E-11,,
,0.040002,-2.01E-11,,
,0.042002,-2.12E-11,,
,0.044002,-2.35E-11,,
,0.046002,-2.66E-11,,
,0.048002,-2.94E-11,,
,0.050002,-3.13E-11,,
,0.052002,-3.22E-11,,
,0.054002,-3.24E-11,,
,0.056002,-3.26E-11,,
,0.058002,-3.32E-11,,
,0.060002,-3.49E-11,,
,0.062002,-3.75E-11,,
,0.064002,-4.02E-11,,
,0.066002,-4.23E-11,,
,0.068002,-4.38E-11,,
,0.070002,-4.44E-11,,
,0.072002,-4.45E-11,,
,0.074002,-4.45E-11,,
,0.076002,-4.58E-11,,
,0.078002,-4.81E-11,,
,0.080002,-5.09E-11,,
,0.082002,-5.30E-11,,
,0.084002,-5.45E-11,,
,0.086002,-5.50E-11,,
,0.088002,-5.53E-11,,
,0.090002,-5.52E-11,,
,0.092002,-5.59E-11,,
,0.094002,-5.76E-11,,
,0.096002,-5.99E-11,,
,0.098002,-6.28E-11,,
,0.100002,-6.45E-11,,
,0.102002,-6.55E-11,,
,0.104002,-6.52E-11,,
,0.106002,-6.51E-11,,
,0.108002,-6.52E-11,,
,0.110002,-6.66E-11,,
,0.112002,-6.83E-11,,
,0.114002,-7.06E-11,,
,0.116002,-7.22E-11,,
,0.118002,-7.31E-11,,
,0.120002,-7.33E-11,,
,0.122002,-7.29E-11,,
,0.124002,-7.30E-11,,
,0.126002,-7.36E-11,,
,0.128002,-7.53E-11,,
,0.130002,-7.73E-11,,
,0.132002,-7.94E-11,,
,0.134002,-8.06E-11,,
,0.136002,-8.10E-11,,
,0.138002,-8.05E-11,,
,0.140002,-7.99E-11,,
,0.142002,-7.99E-11,,
,0.144002,-8.10E-11,,
,0.146002,-8.26E-11,,
,0.148002,-8.42E-11,,
,0.150002,-8.51E-11,,
,0.152002,-8.52E-11,,
,0.154002,-8.43E-11,,
,0.156002,-8.33E-11,,
,0.158002,-8.27E-11,,
,0.160002,-8.31E-11,,
,0.162002,-8.42E-11,,
,0.164002,-8.54E-11,,
,0.166002,-8.59E-11,,
,0.168002,-8.57E-11,,
,0.170002,-8.48E-11,,
,0.172002,-8.37E-11,,
,0.174002,-8.25E-11,,
,0.176002,-8.22E-11,,
,0.178002,-8.26E-11,,
,0.180002,-8.34E-11,,
,0.182002,-8.39E-11,,
,0.184002,-8.38E-11,,
,0.186002,-8.29E-11,,
,0.188002,-8.15E-11,,
,0.190002,-8.00E-11,,
,0.192002,-7.91E-11,,
,0.194002,-7.93E-11,,
,0.196002,-8.02E-11,,
,0.198002,-8.10E-11,,
,0.200002,-8.11E-11,,
,0.202002,-7.99E-11,,
,0.204002,-7.81E-11,,
,0.206002,-7.58E-11,,
,0.208002,-7.43E-11,,
,0.210002,-7.41E-11,,
,0.212002,-7.53E-11,,
,0.214002,-7.66E-11,,
,0.216002,-7.72E-11,,
,0.218002,-7.69E-11,,
,0.220002,-7.59E-11,,
,0.222002,-7.47E-11,,
,0.224002,-7.37E-11,,
,0.226002,-7.33E-11,,
,0.228002,-7.38E-11,,
,0.230002,-7.49E-11,,
,0.232002,-7.56E-11,,
,0.234002,-7.54E-11,,
,0.236002,-7.44E-11,,
,0.238002,-7.28E-11,,
,0.240002,-7.14E-11,,
,0.242002,-7.05E-11,,
,0.244002,-7.09E-11,,
,0.246002,-7.22E-11,,
,0.248002,-7.35E-11,,
,0.250002,-7.40E-11,,
,0.252002,-7.36E-11,,
,0.254002,-7.24E-11,,
,0.256002,-7.11E-11,,
,0.258002,-7.02E-11,,
,0.260002,-7.05E-11,,
,0.262002,-7.14E-11,,
,0.264002,-7.25E-11,,
,0.266002,-7.29E-11,,
,0.268002,-7.25E-11,,
,0.270002,-7.13E-11,,
,0.272002,-6.97E-11,,
,0.274002,-6.85E-11,,
,0.276002,-6.81E-11,,
,0.278002,-6.91E-11,,
,0.280002,-7.07E-11,,
,0.282002,-7.23E-11,,
,0.284002,-7.30E-11,,
,0.286002,-7.27E-11,,
,0.288002,-7.18E-11,,
,0.290002,-7.06E-11,,
,0.292002,-7.00E-11,,
,0.294002,-7.06E-11,,
,0.296002,-7.22E-11,,
,0.298002,-7.36E-11,,
,0.300002,-7.40E-11,,
,0.302002,-7.36E-11,,
,0.304002,-7.25E-11,,
,0.306002,-7.15E-11,,
,0.308002,-7.07E-11,,
,0.310002,-7.10E-11,,
,0.312002,-7.22E-11,,
,0.314002,-7.39E-11,,
,0.316002,-7.47E-11,,
,0.318002,-7.47E-11,,
,0.320002,-7.37E-11,,
,0.322002,-7.23E-11,,
,0.324002,-7.12E-11,,
,0.326002,-7.10E-11,,
,0.328002,-7.15E-11,,
,0.330002,-7.26E-11,,
,0.332002,-7.33E-11,,
,0.334002,-7.33E-11,,
,0.336002,-7.23E-11,,
,0.338002,-7.08E-11,,
,0.340002,-6.97E-11,,
,0.342002,-6.91E-11,,
,0.344002,-6.94E-11,,
,0.346002,-7.03E-11,,
,0.348002,-7.12E-11,,
,0.350002,-7.16E-11,,
,0.352002,-7.08E-11,,
,0.354002,-6.95E-11,,
,0.356002,-6.79E-11,,
,0.358002,-6.69E-11,,
,0.360002,-6.68E-11,,
,0.362002,-6.77E-11,,
,0.364002,-6.85E-11,,
,0.366002,-6.88E-11,,
,0.368002,-6.81E-11,,
,0.370002,-6.67E-11,,
,0.372002,-6.49E-11,,
,0.374002,-6.35E-11,,
,0.376002,-6.29E-11,,
,0.378002,-6.33E-11,,
,0.380002,-6.39E-11,,
,0.382002,-6.44E-11,,
,0.384002,-6.44E-11,,
,0.386002,-6.34E-11,,
,0.388002,-6.18E-11,,
,0.390002,-5.99E-11,,
,0.392002,-5.90E-11,,
,0.394002,-5.89E-11,,
,0.396002,-5.95E-11,,
,0.398002,-5.98E-11,,
,0.400002,-5.93E-11,,
,0.402002,-5.81E-11,,
,0.404002,-5.64E-11,,
,0.406002,-5.45E-11,,
,0.408002,-5.28E-11,,
,0.410002,-5.23E-11,,
,0.412002,-5.28E-11,,
,0.414002,-5.38E-11,,
,0.416002,-5.41E-11,,
,0.418002,-5.35E-11,,
,0.420002,-5.16E-11,,
,0.422002,-4.97E-11,,
,0.424002,-4.80E-11,,
,0.426002,-4.73E-11,,
,0.428002,-4.72E-11,,
,0.430002,-4.77E-11,,
,0.432002,-4.79E-11,,
,0.434002,-4.73E-11,,
,0.436002,-4.57E-11,,
,0.438002,-4.35E-11,,
,0.440002,-4.14E-11,,
,0.442002,-4.03E-11,,
,0.444002,-4.04E-11,,
,0.446002,-4.15E-11,,
,0.448002,-4.20E-11,,
,0.450002,-4.19E-11,,
,0.452002,-4.07E-11,,
,0.454002,-3.90E-11,,
,0.456002,-3.68E-11,,
,0.458002,-3.52E-11,,
,0.460002,-3.47E-11,,
,0.462002,-3.51E-11,,
,0.464002,-3.56E-11,,
,0.466002,-3.57E-11,,
,0.468002,-3.47E-11,,
,0.470002,-3.32E-11,,
,0.472002,-3.11E-11,,
,0.474002,-2.97E-11,,
,0.476002,-2.89E-11,,
,0.478002,-2.92E-11,,
,0.480002,-3.00E-11,,
,0.482002,-3.06E-11,,
,0.484002,-3.04E-11,,
,0.486002,-2.93E-11,,
,0.488002,-2.78E-11,,
,0.490002,-2.62E-11,,
,0.492002,-2.53E-11,,
,0.494002,-2.54E-11,,
,0.496002,-2.62E-11,,
,0.498002,-2.69E-11,,
,0.500002,-2.69E-11,,
,0.502002,-2.58E-11,,
,0.504002,-2.43E-11,,
,0.506002,-2.26E-11,,
,0.508002,-2.13E-11,,
,0.510002,-2.13E-11,,
,0.512002,-2.20E-11,,
,0.514002,-2.32E-11,,
,0.516002,-2.38E-11,,
,0.518002,-2.34E-11,,
,0.520002,-2.24E-11,,
,0.522002,-2.09E-11,,
,0.524002,-1.95E-11,,
,0.526002,-1.90E-11,,
,0.528002,-1.96E-11,,
,0.530002,-2.06E-11,,
,0.532002,-2.14E-11,,
,0.534002,-2.11E-11,,
,0.536002,-1.99E-11,,
,0.538002,-1.86E-11,,
,0.540002,-1.72E-11,,
,0.542002,-1.68E-11,,
,0.544002,-1.71E-11,,
,0.546002,-1.85E-11,,
,0.548002,-2.00E-11,,
,0.550002,-2.06E-11,,
,0.552002,-2.01E-11,,
,0.554002,-1.87E-11,,
,0.556002,-1.73E-11,,
,0.558002,-1.65E-11,,
,0.560002,-1.66E-11,,
,0.562002,-1.75E-11,,
,0.564002,-1.87E-11,,
,0.566002,-1.92E-11,,
,0.568002,-1.88E-11,,
,0.570002,-1.76E-11,,
,0.572002,-1.61E-11,,
,0.574002,-1.51E-11,,
,0.576002,-1.49E-11,,
,0.578002,-1.60E-11,,
,0.580002,-1.75E-11,,
,0.582002,-1.89E-11,,
,0.584002,-1.96E-11,,
,0.586002,-1.90E-11,,
,0.588002,-1.80E-11,,
,0.590002,-1.65E-11,,
,0.592002,-1.59E-11,,
,0.594002,-1.65E-11,,
,0.596002,-1.77E-11,,
,0.598002,-1.86E-11,,
,0.600002,-1.88E-11,,
,0.602002,-1.82E-11,,
,0.604002,-1.71E-11,,
,0.606002,-1.58E-11,,
,0.608002,-1.51E-11,,
,0.610002,-1.56E-11,,
,0.612002,-1.68E-11,,
,0.614002,-1.85E-11,,
,0.616002,-1.96E-11,,
,0.618002,-1.99E-11,,
,0.620002,-1.93E-11,,
,0.622002,-1.83E-11,,
,0.624002,-1.74E-11,,
,0.626002,-1.73E-11,,
,0.628002,-1.85E-11,,
,0.630002,-2.00E-11,,
,0.632002,-2.14E-11,,
,0.634002,-2.15E-11,,
,0.636002,-2.10E-11,,
,0.638002,-1.96E-11,,
,0.640002,-1.86E-11,,
,0.642002,-1.86E-11,,
,0.644002,-1.98E-11,,
,0.646002,-2.16E-11,,
,0.648002,-2.33E-11,,
,0.650002,-2.44E-11,,
,0.652002,-2.46E-11,,
,0.654002,-2.38E-11,,
,0.656002,-2.27E-11,,
,0.658002,-2.21E-11,,
,0.660002,-2.27E-11,,
,0.662002,-2.40E-11,,
,0.664002,-2.50E-11,,
,0.666002,-2.58E-11,,
,0.668002,-2.57E-11,,
,0.670002,-2.49E-11,,
,0.672002,-2.36E-11,,
,0.674002,-2.27E-11,,
,0.676002,-2.31E-11,,
,0.678002,-2.44E-11,,
,0.680002,-2.62E-11,,
,0.682002,-2.74E-11,,
,0.684002,-2.82E-11,,
,0.686002,-2.82E-11,,
,0.688002,-2.76E-11,,
,0.690002,-2.69E-11,,
,0.692002,-2.65E-11,,
,0.694002,-2.73E-11,,
,0.696002,-2.86E-11,,
,0.698002,-2.98E-11,,
,0.700002,-3.03E-11,,
,0.702002,-3.01E-11,,
,0.704002,-2.91E-11,,
,0.706002,-2.80E-11,,
,0.708002,-2.76E-11,,
,0.710002,-2.83E-11,,
,0.712002,-2.97E-11,,
,0.714002,-3.14E-11,,
,0.716002,-3.27E-11,,
,0.718002,-3.30E-11,,
,0.720002,-3.23E-11,,
,0.722002,-3.14E-11,,
,0.724002,-3.07E-11,,
,0.726002,-3.05E-11,,
,0.728002,-3.14E-11,,
,0.730002,-3.27E-11,,
,0.732002,-3.42E-11,,
,0.734002,-3.45E-11,,
,0.736002,-3.36E-11,,
,0.738002,-3.20E-11,,
,0.740002,-3.06E-11,,
,0.742002,-3.04E-11,,
,0.744002,-3.09E-11,,
,0.746002,-3.23E-11,,
,0.748002,-3.33E-11,,
,0.750002,-3.38E-11,,
,0.752002,-3.32E-11,,
,0.754002,-3.22E-11,,
,0.756002,-3.08E-11,,
,0.758002,-3.01E-11,,
,0.760002,-3.02E-11,,
,0.762002,-3.13E-11,,
,0.764002,-3.26E-11,,
,0.766002,-3.33E-11,,
,0.768002,-3.32E-11,,
,0.770002,-3.21E-11,,
,0.772002,-3.07E-11,,
,0.774002,-2.98E-11,,
,0.776002,-2.97E-11,,
,0.778002,-3.06E-11,,
,0.780002,-3.19E-11,,
,0.782002,-3.31E-11,,
,0.784002,-3.33E-11,,
,0.786002,-3.26E-11,,
,0.788002,-3.14E-11,,
,0.790002,-3.03E-11,,
,0.792002,-3.00E-11,,
,0.794002,-3.07E-11,,
,0.796002,-3.19E-11,,
,0.798002,-3.31E-11,,
,0.800002,-3.34E-11,,
,0.802002,-3.30E-11,,
,0.804002,-3.18E-11,,
,0.806002,-3.05E-11,,
,0.808002,-2.95E-11,,
,0.810002,-2.99E-11,,
,0.812002,-3.08E-11,,
,0.814002,-3.21E-11,,
,0.816002,-3.28E-11,,
,0.818002,-3.27E-11,,
,0.820002,-3.20E-11,,
,0.822002,-3.08E-11,,
,0.824002,-3.00E-11,,
,0.826002,-2.95E-11,,
,0.828002,-3.01E-11,,
,0.830002,-3.11E-11,,
,0.832002,-3.18E-11,,
,0.834002,-3.19E-11,,
,0.836002,-3.13E-11,,
,0.838002,-3.01E-11,,
,0.840002,-2.87E-11,,
,0.842002,-2.79E-11,,
,0.844002,-2.85E-11,,
,0.846002,-2.99E-11,,
,0.848002,-3.12E-11,,
,0.850002,-3.18E-11,,
,0.852002,-3.17E-11,,
,0.854002,-3.08E-11,,
,0.856002,-2.97E-11,,
,0.858002,-2.91E-11,,
,0.860002,-2.97E-11,,
,0.862002,-3.08E-11,,
,0.864002,-3.20E-11,,
,0.866002,-3.28E-11,,
,0.868002,-3.26E-11,,
,0.870002,-3.16E-11,,
,0.872002,-3.02E-11,,
,0.874002,-2.92E-11,,
,0.876002,-2.92E-11,,
,0.878002,-3.01E-11,,
,0.880002,-3.16E-11,,
,0.882002,-3.27E-11,,
,0.884002,-3.33E-11,,
,0.886002,-3.31E-11,,
,0.888002,-3.22E-11,,
,0.890002,-3.11E-11,,
,0.892002,-3.07E-11,,
,0.894002,-3.14E-11,,
,0.896002,-3.27E-11,,
,0.898002,-3.37E-11,,
,0.900002,-3.44E-11,,
,0.902002,-3.39E-11,,
,0.904002,-3.29E-11,,
,0.906002,-3.16E-11,,
,0.908002,-3.09E-11,,
,0.910002,-3.14E-11,,
,0.912002,-3.24E-11,,
,0.914002,-3.41E-11,,
,0.916002,-3.53E-11,,
,0.918002,-3.58E-11,,
,0.920002,-3.50E-11,,
,0.922002,-3.34E-11,,
,0.924002,-3.21E-11,,
,0.926002,-3.18E-11,,
,0.928002,-3.26E-11,,
,0.930002,-3.38E-11,,
,0.932002,-3.46E-11,,
,0.934002,-3.46E-11,,
,0.936002,-3.36E-11,,
,0.938002,-3.21E-11,,
,0.940002,-3.08E-11,,
,0.942002,-3.03E-11,,
,0.944002,-3.12E-11,,
,0.946002,-3.27E-11,,
,0.948002,-3.43E-11,,
,0.950002,-3.49E-11,,
,0.952002,-3.45E-11,,
,0.954002,-3.33E-11,,
,0.956002,-3.20E-11,,
,0.958002,-3.13E-11,,
,0.960002,-3.12E-11,,
,0.962002,-3.20E-11,,
,0.964002,-3.30E-11,,
,0.966002,-3.37E-11,,
,0.968002,-3.35E-11,,
,0.970002,-3.27E-11,,
,0.972002,-3.14E-11,,
,0.974002,-3.02E-11,,
,0.976002,-3.00E-11,,
,0.978002,-3.08E-11,,
,0.980002,-3.28E-11,,
,0.982002,-3.42E-11,,
,0.984002,-3.46E-11,,
,0.986002,-3.41E-11,,
,0.988002,-3.28E-11,,
,0.990002,-3.16E-11,,
,0.992002,-3.07E-11,,
,0.994002,-3.12E-11,,
,0.996002,-3.19E-11,,
,0.998002,-3.29E-11,,
,1.000002,-3.30E-11,,
,1.002002,-3.26E-11,,
,1.004002,-3.09E-11,,
,1.006002,-2.92E-11,,
,1.008002,-2.82E-11,,
,1.010002,-2.85E-11,,
,1.012002,-2.97E-11,,
,1.014002,-3.11E-11,,
,1.016002,-3.15E-11,,
,1.018002,-3.15E-11,,
,1.020002,-3.04E-11,,
,1.022002,-2.92E-11,,
,1.024002,-2.79E-11,,
,1.026002,-2.76E-11,,
,1.028002,-2.82E-11,,
,1.030002,-2.91E-11,,
,1.032002,-2.98E-11,,
,1.034002,-2.95E-11,,
,1.036002,-2.85E-11,,
,1.038002,-2.66E-11,,
,1.040002,-2.53E-11,,
,1.042002,-2.46E-11,,
,1.044002,-2.50E-11,,
,1.046002,-2.61E-11,,
,1.048002,-2.70E-11,,
,1.050002,-2.75E-11,,
,1.052002,-2.69E-11,,
,1.054002,-2.58E-11,,
,1.056002,-2.42E-11,,
,1.058002,-2.30E-11,,
,1.060002,-2.27E-11,,
,1.062002,-2.32E-11,,
,1.064002,-2.39E-11,,
,1.066002,-2.39E-11,,
,1.068002,-2.29E-11,,
,1.070002,-2.15E-11,,
,1.072002,-1.97E-11,,
,1.074002,-1.81E-11,,
,1.076002,-1.73E-11,,
,1.078002,-1.76E-11,,
,1.080002,-1.85E-11,,
,1.082002,-1.90E-11,,
,1.084002,-1.86E-11,,
,1.086002,-1.75E-11,,
,1.088002,-1.60E-11,,
,1.090002,-1.45E-11,,
,1.092002,-1.38E-11,,
,1.094002,-1.38E-11,,
,1.096002,-1.48E-11,,
,1.098002,-1.58E-11,,
,1.100002,-1.61E-11,,
,1.102002,-1.55E-11,,
,1.104002,-1.42E-11,,
,1.106002,-1.28E-11,,
,1.108002,-1.20E-11,,
,1.110002,-1.24E-11,,
,1.112002,-1.37E-11,,
,1.114002,-1.52E-11,,
,1.116002,-1.61E-11,,
,1.118002,-1.62E-11,,
,1.120002,-1.53E-11,,
,1.122002,-1.40E-11,,
,1.124002,-1.29E-11,,
,1.126002,-1.29E-11,,
,1.128002,-1.38E-11,,
,1.130002,-1.52E-11,,
,1.132002,-1.63E-11,,
,1.134002,-1.66E-11,,
,1.136002,-1.59E-11,,
,1.138002,-1.46E-11,,
,1.140002,-1.33E-11,,
,1.142002,-1.30E-11,,
,1.144002,-1.34E-11,,
,1.146002,-1.48E-11,,
,1.148002,-1.59E-11,,
,1.150002,-1.66E-11,,
,1.152002,-1.63E-11,,
,1.154002,-1.54E-11,,
,1.156002,-1.42E-11,,
,1.158002,-1.36E-11,,
,1.160002,-1.40E-11,,
,1.162002,-1.54E-11,,
,1.164002,-1.69E-11,,
,1.166002,-1.75E-11,,
,1.168002,-1.73E-11,,
,1.170002,-1.62E-11,,
,1.172002,-1.52E-11,,
,1.174002,-1.40E-11,,
,1.176002,-1.39E-11,,
,1.178002,-1.46E-11,,
,1.180002,-1.61E-11,,
,1.182002,-1.74E-11,,
,1.184002,-1.77E-11,,
,1.186002,-1.72E-11,,
,1.188002,-1.59E-11,,
,1.190002,-1.48E-11,,
,1.192002,-1.43E-11,,
,1.194002,-1.49E-11,,
,1.196002,-1.61E-11,,
,1.198002,-1.75E-11,,
,1.200002,-1.77E-11,,
,1.202002,-1.75E-11,,
,1.204002,-1.60E-11,,
,1.206002,-1.46E-11,,
,1.208002,-1.33E-11,,
,1.210002,-1.37E-11,,
,1.212002,-1.46E-11,,
,1.214002,-1.58E-11,,
,1.216002,-1.63E-11,,
,1.218002,-1.61E-11,,
,1.220002,-1.54E-11,,
,1.222002,-1.40E-11,,
,1.224002,-1.31E-11,,
,1.226002,-1.30E-11,,
,1.228002,-1.41E-11,,
,1.230002,-1.53E-11,,
,1.232002,-1.60E-11,,
,1.234002,-1.61E-11,,
,1.236002,-1.54E-11,,
,1.238002,-1.42E-11,,
,1.240002,-1.27E-11,,
,1.242002,-1.23E-11,,
,1.244002,-1.29E-11,,
,1.246002,-1.42E-11,,
,1.248002,-1.53E-11,,
,1.250002,-1.55E-11,,
,1.252002,-1.52E-11,,
,1.254002,-1.42E-11,,
,1.256002,-1.30E-11,,
,1.258002,-1.22E-11,,
,1.260002,-1.24E-11,,
,1.262002,-1.33E-11,,
,1.264002,-1.46E-11,,
,1.266002,-1.49E-11,,
,1.268002,-1.45E-11,,
,1.270002,-1.32E-11,,
,1.272002,-1.16E-11,,
,1.274002,-1.04E-11,,
,1.276002,-1.01E-11,,
,1.278002,-1.12E-11,,
,1.280002,-1.28E-11,,
,1.282002,-1.44E-11,,
,1.284002,-1.51E-11,,
,1.286002,-1.46E-11,,
,1.288002,-1.37E-11,,
,1.290002,-1.27E-11,,
,1.292002,-1.26E-11,,
,1.294002,-1.32E-11,,
,1.296002,-1.47E-11,,
,1.298002,-1.59E-11,,
,1.300002,-1.65E-11,,
,1.302002,-1.59E-11,,
,1.304002,-1.48E-11,,
,1.306002,-1.39E-11,,
,1.308002,-1.36E-11,,
,1.310002,-1.41E-11,,
,1.312002,-1.56E-11,,
,1.314002,-1.71E-11,,
,1.316002,-1.85E-11,,
,1.318002,-1.87E-11,,
,1.320002,-1.84E-11,,
,1.322002,-1.72E-11,,
,1.324002,-1.65E-11,,
,1.326002,-1.63E-11,,
,1.328002,-1.78E-11,,
,1.330002,-1.93E-11,,
,1.332002,-2.06E-11,,
,1.334002,-2.07E-11,,
,1.336002,-1.99E-11,,
,1.338002,-1.84E-11,,
,1.340002,-1.69E-11,,
,1.342002,-1.63E-11,,
,1.344002,-1.74E-11,,
,1.346002,-1.92E-11,,
,1.348002,-2.12E-11,,
,1.350002,-2.20E-11,,
,1.352002,-2.19E-11,,
,1.354002,-2.13E-11,,
,1.356002,-2.05E-11,,
,1.358002,-2.02E-11,,
,1.360002,-2.06E-11,,
,1.362002,-2.17E-11,,
,1.364002,-2.31E-11,,
,1.366002,-2.38E-11,,
,1.368002,-2.35E-11,,
,1.370002,-2.22E-11,,
,1.372002,-2.09E-11,,
,1.374002,-1.97E-11,,
,1.376002,-1.99E-11,,
,1.378002,-2.11E-11,,
,1.380002,-2.29E-11,,
,1.382002,-2.42E-11,,
,1.384002,-2.48E-11,,
,1.386002,-2.46E-11,,
,1.388002,-2.38E-11,,
,1.390002,-2.28E-11,,
,1.392002,-2.25E-11,,
,1.394002,-2.34E-11,,
,1.396002,-2.49E-11,,
,1.398002,-2.61E-11,,
,1.400002,-2.64E-11,,
,1.402002,-2.59E-11,,
,1.404002,-2.47E-11,,
,1.406002,-2.32E-11,,
,1.408002,-2.24E-11,,
,1.410002,-2.26E-11,,
,1.412002,-2.39E-11,,
,1.414002,-2.53E-11,,
,1.416002,-2.64E-11,,
,1.418002,-2.69E-11,,
,1.420002,-2.65E-11,,
,1.422002,-2.56E-11,,
,1.424002,-2.49E-11,,
,1.426002,-2.47E-11,,
,1.428002,-2.57E-11,,
,1.430002,-2.68E-11,,
,1.432002,-2.77E-11,,
,1.434002,-2.76E-11,,
,1.436002,-2.68E-11,,
,1.438002,-2.53E-11,,
,1.440002,-2.40E-11,,
,1.442002,-2.33E-11,,
,1.444002,-2.42E-11,,
,1.446002,-2.57E-11,,
,1.448002,-2.73E-11,,
,1.450002,-2.83E-11,,
,1.452002,-2.84E-11,,
,1.454002,-2.78E-11,,
,1.456002,-2.69E-11,,
,1.458002,-2.63E-11,,
,1.460002,-2.64E-11,,
,1.462002,-2.75E-11,,
,1.464002,-2.83E-11,,
,1.466002,-2.86E-11,,
,1.468002,-2.78E-11,,
,1.470002,-2.64E-11,,
,1.472002,-2.45E-11,,
,1.474002,-2.31E-11,,
,1.476002,-2.29E-11,,
,1.478002,-2.39E-11,,
,1.480002,-2.50E-11,,
,1.482002,-2.61E-11,,
,1.484002,-2.65E-11,,
,1.486002,-2.60E-11,,
,1.488002,-2.48E-11,,
,1.490002,-2.35E-11,,
,1.492002,-2.31E-11,,
,1.494002,-2.38E-11,,
,1.496002,-2.53E-11,,
,1.498002,-2.64E-11,,
,1.500002,-2.71E-11,,
,1.502002,-2.64E-11,,
,1.504002,-2.55E-11,,
,1.506002,-2.43E-11,,
,1.508002,-2.40E-11,,
,1.510002,-2.46E-11,,
,1.512002,-2.59E-11,,
,1.514002,-2.73E-11,,
,1.516002,-2.85E-11,,
,1.518002,-2.86E-11,,
,1.520002,-2.79E-11,,
,1.522002,-2.63E-11,,
,1.524002,-2.54E-11,,
,1.526002,-2.54E-11,,
,1.528002,-2.65E-11,,
,1.530002,-2.79E-11,,
,1.532002,-2.89E-11,,
,1.534002,-2.90E-11,,
,1.536002,-2.80E-11,,
,1.538002,-2.68E-11,,
,1.540002,-2.60E-11,,
,1.542002,-2.61E-11,,
,1.544002,-2.71E-11,,
,1.546002,-2.84E-11,,
,1.548002,-2.98E-11,,
,1.550002,-3.06E-11,,
,1.552002,-3.05E-11,,
,1.554002,-3.00E-11,,
,1.556002,-2.89E-11,,
,1.558002,-2.85E-11,,
,1.560002,-2.86E-11,,
,1.562002,-2.95E-11,,
,1.564002,-3.07E-11,,
,1.566002,-3.14E-11,,
,1.568002,-3.13E-11,,
,1.570002,-3.02E-11,,
,1.572002,-2.88E-11,,
,1.574002,-2.76E-11,,
,1.576002,-2.73E-11,,
,1.578002,-2.82E-11,,
,1.580002,-2.95E-11,,
,1.582002,-3.06E-11,,
,1.584002,-3.05E-11,,
,1.586002,-2.99E-11,,
,1.588002,-2.86E-11,,
,1.590002,-2.74E-11,,
,1.592002,-2.69E-11,,
,1.594002,-2.71E-11,,
,1.596002,-2.83E-11,,
,1.598002,-2.89E-11,,
,1.600002,-2.91E-11,,
,1.602002,-2.80E-11,,
,1.604002,-2.64E-11,,
,1.606002,-2.46E-11,,
,1.608002,-2.35E-11,,
,1.610002,-2.32E-11,,
,1.612002,-2.40E-11,,
,1.614002,-2.48E-11,,
,1.616002,-2.54E-11,,
,1.618002,-2.50E-11,,
,1.620002,-2.41E-11,,
,1.622002,-2.27E-11,,
,1.624002,-2.16E-11,,
,1.626002,-2.14E-11,,
,1.628002,-2.24E-11,,
,1.630002,-2.35E-11,,
,1.632002,-2.44E-11,,
,1.634002,-2.43E-11,,
,1.636002,-2.34E-11,,
,1.638002,-2.18E-11,,
,1.640002,-2.06E-11,,
,1.642002,-2.01E-11,,
,1.644002,-2.09E-11,,
,1.646002,-2.19E-11,,
,1.648002,-2.29E-11,,
,1.650002,-2.34E-11,,
,1.652002,-2.30E-11,,
,1.654002,-2.21E-11,,
,1.656002,-2.10E-11,,
,1.658002,-2.02E-11,,
,1.660002,-2.04E-11,,
,1.662002,-2.16E-11,,
,1.664002,-2.31E-11,,
,1.666002,-2.36E-11,,
,1.668002,-2.30E-11,,
,1.670002,-2.15E-11,,
,1.672002,-1.98E-11,,
,1.674002,-1.85E-11,,
,1.676002,-1.81E-11,,
,1.678002,-1.88E-11,,
,1.680002,-1.98E-11,,
,1.682002,-2.06E-11,,
,1.684002,-2.05E-11,,
,1.686002,-2.00E-11,,
,1.688002,-1.88E-11,,
,1.690002,-1.77E-11,,
,1.692002,-1.68E-11,,
,1.694002,-1.70E-11,,
,1.696002,-1.80E-11,,
,1.698002,-1.91E-11,,
,1.700002,-1.92E-11,,
,1.702002,-1.85E-11,,
,1.704002,-1.69E-11,,
,1.706002,-1.55E-11,,
,1.708002,-1.45E-11,,
,1.710002,-1.48E-11,,
,1.712002,-1.59E-11,,
,1.714002,-1.73E-11,,
,1.716002,-1.81E-11,,
,1.718002,-1.80E-11,,
,1.720002,-1.69E-11,,
,1.722002,-1.55E-11,,
,1.724002,-1.42E-11,,
,1.726002,-1.43E-11,,
,1.728002,-1.55E-11,,
,1.730002,-1.70E-11,,
,1.732002,-1.76E-11,,
,1.734002,-1.74E-11,,
,1.736002,-1.66E-11,,
,1.738002,-1.52E-11,,
,1.740002,-1.37E-11,,
,1.742002,-1.28E-11,,
,1.744002,-1.31E-11,,
,1.746002,-1.41E-11,,
,1.748002,-1.53E-11,,
,1.750002,-1.57E-11,,
,1.752002,-1.52E-11,,
,1.754002,-1.39E-11,,
,1.756002,-1.27E-11,,
,1.758002,-1.20E-11,,
,1.760002,-1.23E-11,,
,1.762002,-1.29E-11,,
,1.764002,-1.41E-11,,
,1.766002,-1.47E-11,,
,1.768002,-1.45E-11,,
,1.770002,-1.31E-11,,
,1.772002,-1.14E-11,,
,1.774002,-1.01E-11,,
,1.776002,-9.79E-12,,
,1.778002,-1.05E-11,,
,1.780002,-1.17E-11,,
,1.782002,-1.26E-11,,
,1.784002,-1.27E-11,,
,1.786002,-1.22E-11,,
,1.788002,-1.11E-11,,
,1.790002,-9.79E-12,,
,1.792002,-9.15E-12,,
,1.794002,-9.58E-12,,
,1.796002,-1.08E-11,,
,1.798002,-1.18E-11,,
,1.800002,-1.20E-11,,
,1.802002,-1.14E-11,,
,1.804002,-1.01E-11,,
,1.806002,-9.04E-12,,
,1.808002,-8.40E-12,,
,1.810002,-8.51E-12,,
,1.812002,-9.69E-12,,
,1.814002,-1.12E-11,,
,1.816002,-1.20E-11,,
,1.818002,-1.19E-11,,
,1.820002,-1.10E-11,,
,1.822002,-9.79E-12,,
,1.824002,-8.61E-12,,
,1.826002,-8.29E-12,,
,1.828002,-8.83E-12,,
,1.830002,-1.00E-11,,
,1.832002,-1.10E-11,,
,1.834002,-1.13E-11,,
,1.836002,-1.04E-11,,
,1.838002,-9.15E-12,,
,1.840002,-7.86E-12,,
,1.842002,-7.54E-12,,
,1.844002,-7.86E-12,,
,1.846002,-9.04E-12,,
,1.848002,-1.03E-11,,
,1.850002,-1.09E-11,,
,1.852002,-1.05E-11,,
,1.854002,-9.37E-12,,
,1.856002,-8.18E-12,,
,1.858002,-7.43E-12,,
,1.860002,-7.54E-12,,
,1.862002,-8.51E-12,,
,1.864002,-9.47E-12,,
,1.866002,-9.79E-12,,
,1.868002,-9.26E-12,,
,1.870002,-8.08E-12,,
,1.872002,-6.57E-12,,
,1.874002,-5.50E-12,,
,1.876002,-5.18E-12,,
,1.878002,-6.04E-12,,
,1.880002,-7.43E-12,,
,1.882002,-8.72E-12,,
,1.884002,-9.26E-12,,
,1.886002,-8.72E-12,,
,1.888002,-7.33E-12,,
,1.890002,-6.25E-12,,
,1.892002,-5.82E-12,,
,1.894002,-6.68E-12,,
,1.896002,-7.65E-12,,
,1.898002,-8.61E-12,,
,1.900002,-8.94E-12,,
,1.902002,-8.40E-12,,
,1.904002,-7.00E-12,,
,1.906002,-5.18E-12,,
,1.908002,-3.78E-12,,
,1.910002,-3.68E-12,,
,1.912002,-4.64E-12,,
,1.914002,-6.04E-12,,
,1.916002,-6.57E-12,,
,1.918002,-6.25E-12,,
,1.920002,-5.07E-12,,
,1.922002,-3.89E-12,,
,1.924002,-2.71E-12,,
,1.926002,-2.39E-12,,
,1.928002,-2.82E-12,,
,1.930002,-3.78E-12,,
,1.932002,-4.43E-12,,
,1.934002,-3.89E-12,,
,1.936002,-2.60E-12,,
,1.938002,-5.62E-13,,
,1.940002,8.34E-13,,
,1.942002,1.80E-12,,
,1.944002,1.48E-12,,
,1.946002,7.26E-13,,
,1.948002,-2.40E-13,,
,1.950002,-2.40E-13,,
,1.952002,5.11E-13,,
,1.954002,1.80E-12,,
,1.956002,3.09E-12,,
,1.958002,3.95E-12,,
,1.960002,3.95E-12,,
,1.962002,2.98E-12,,
,1.964002,1.80E-12,,
,1.966002,1.26E-12,,
,1.968002,1.48E-12,,
,1.970002,2.66E-12,,
,1.972002,4.05E-12,,
,1.974002,5.24E-12,,
,1.976002,5.13E-12,,
,1.978002,3.95E-12,,
,1.980002,2.44E-12,,
,1.982002,1.16E-12,,
,1.984002,5.11E-13,,
,1.986002,7.26E-13,,
,1.988002,1.80E-12,,
,1.990002,2.98E-12,,
,1.992002,3.41E-12,,
,1.994002,2.66E-12,,
,1.996002,1.16E-12,,
,1.998002,-4.55E-13,,
,2.000002,-1.10E-12,,
,2.002002,-5.62E-13,,
,2.004002,8.34E-13,,
,2.006002,2.12E-12,,
,2.008002,2.87E-12,,
,2.010002,2.55E-12,,
,2.012002,1.37E-12,,
,2.014002,-2.40E-13,,
,2.016002,-1.31E-12,,
,2.018002,-1.42E-12,,
,2.020002,-6.69E-13,,
,2.022002,5.11E-13,,
,2.024002,1.37E-12,,
,2.026002,1.26E-12,,
,2.028002,4.04E-13,,
,2.030002,-1.10E-12,,
,2.032002,-1.96E-12,,
,2.034002,-2.28E-12,,
,2.036002,-1.31E-12,,
,2.038002,2.97E-13,,
,2.040002,1.80E-12,,
,2.042002,2.44E-12,,
,2.044002,1.59E-12,,
,2.046002,-2.53E-14,,
,2.048002,-1.64E-12,,
,2.050002,-2.28E-12,,
,2.052002,-1.96E-12,,
,2.054002,-9.92E-13,,
,2.056002,-2.53E-14,,
,2.058002,4.04E-13,,
,2.060002,-1.33E-13,,
,2.062002,-1.42E-12,,
,2.064002,-2.92E-12,,
,2.066002,-3.89E-12,,
,2.068002,-3.89E-12,,
,2.070002,-2.82E-12,,
,2.072002,-1.42E-12,,
,2.074002,-4.55E-13,,
,2.076002,-3.47E-13,,
,2.078002,-1.31E-12,,
,2.080002,-2.71E-12,,
,2.082002,-3.89E-12,,
,2.084002,-4.21E-12,,
,2.086002,-3.89E-12,,
,2.088002,-2.92E-12,,
,2.090002,-2.17E-12,,
,2.092002,-1.85E-12,,
,2.094002,-2.71E-12,,
,2.096002,-4.00E-12,,
,2.098002,-5.39E-12,,
,2.100002,-5.82E-12,,
,2.102002,-5.39E-12,,
,2.104002,-4.21E-12,,
,2.106002,-2.92E-12,,
,2.108002,-2.28E-12,,
,2.110002,-2.82E-12,,
,2.112002,-4.43E-12,,
,2.114002,-5.82E-12,,
,2.116002,-6.57E-12,,
,2.118002,-6.47E-12,,
,2.120002,-5.72E-12,,
,2.122002,-4.43E-12,,
,2.124002,-3.68E-12,,
,2.126002,-3.78E-12,,
,2.128002,-4.96E-12,,
,2.130002,-6.25E-12,,
,2.132002,-7.33E-12,,
,2.134002,-7.22E-12,,
,2.136002,-6.36E-12,,
,2.138002,-4.75E-12,,
,2.140002,-3.57E-12,,
,2.142002,-2.92E-12,,
,2.144002,-3.35E-12,,
,2.146002,-4.64E-12,,
,2.148002,-6.14E-12,,
,2.150002,-7.11E-12,,
,2.152002,-7.11E-12,,
,2.154002,-6.47E-12,,
,2.156002,-5.61E-12,,
,2.158002,-4.86E-12,,
,2.160002,-5.07E-12,,
,2.162002,-6.14E-12,,
,2.164002,-7.65E-12,,
,2.166002,-8.51E-12,,
,2.168002,-8.29E-12,,
,2.170002,-7.11E-12,,
,2.172002,-5.50E-12,,
,2.174002,-4.32E-12,,
,2.176002,-4.21E-12,,
,2.178002,-5.29E-12,,
,2.180002,-6.68E-12,,
,2.182002,-7.75E-12,,
,2.184002,-7.97E-12,,
,2.186002,-7.33E-12,,
,2.188002,-6.04E-12,,
,2.190002,-4.96E-12,,
,2.192002,-4.75E-12,,
,2.194002,-5.39E-12,,
,2.196002,-6.25E-12,,
,2.198002,-7.00E-12,,
,2.200002,-7.33E-12,,
,2.202002,-6.68E-12,,
,2.204002,-5.18E-12,,
,2.206002,-3.35E-12,,
,2.208002,-2.17E-12,,
,2.210002,-2.28E-12,,
,2.212002,-3.14E-12,,
,2.214002,-4.32E-12,,
,2.216002,-4.86E-12,,
,2.218002,-4.53E-12,,
,2.220002,-3.25E-12,,
,2.222002,-1.74E-12,,
,2.224002,-6.69E-13,,
,2.226002,-7.77E-13,,
,2.228002,-1.64E-12,,
,2.230002,-2.92E-12,,
,2.232002,-3.78E-12,,
,2.234002,-3.68E-12,,
,2.236002,-2.71E-12,,
,2.238002,-9.92E-13,,
,2.240002,1.89E-13,,
,2.242002,7.26E-13,,
,2.244002,-1.33E-13,,
,2.246002,-1.42E-12,,
,2.248002,-2.82E-12,,
,2.250002,-3.25E-12,,
,2.252002,-2.71E-12,,
,2.254002,-1.31E-12,,
,2.256002,-1.33E-13,,
,2.258002,5.11E-13,,
,2.260002,8.20E-14,,
,2.262002,-9.92E-13,,
,2.264002,-2.17E-12,,
,2.266002,-2.92E-12,,
,2.268002,-2.60E-12,,
,2.270002,-1.74E-12,,
,2.272002,-1.33E-13,,
,2.274002,1.05E-12,,
,2.276002,1.48E-12,,
,2.278002,4.04E-13,,
,2.280002,-8.84E-13,,
,2.282002,-1.85E-12,,
,2.284002,-1.74E-12,,
,2.286002,-8.84E-13,,
,2.288002,4.04E-13,,
,2.290002,1.69E-12,,
,2.292002,2.23E-12,,
,2.294002,1.69E-12,,
,2.296002,6.19E-13,,
,2.298002,-4.55E-13,,
,2.300002,-6.69E-13,,
,2.302002,8.20E-14,,
,2.304002,1.48E-12,,
,2.306002,3.20E-12,,
,2.308002,4.27E-12,,
,2.310002,4.38E-12,,
,2.312002,3.41E-12,,
,2.314002,2.23E-12,,
,2.316002,1.80E-12,,
,2.318002,2.34E-12,,
,2.320002,3.30E-12,,
,2.322002,4.38E-12,,
,2.324002,5.24E-12,,
,2.326002,5.45E-12,,
,2.328002,4.59E-12,,
,2.330002,3.52E-12,,
,2.332002,2.55E-12,,
,2.334002,2.87E-12,,
,2.336002,3.73E-12,,
,2.338002,5.66E-12,,
,2.340002,7.17E-12,,
,2.342002,8.35E-12,,
,2.344002,8.24E-12,,
,2.346002,7.60E-12,,
,2.348002,6.42E-12,,
,2.350002,5.88E-12,,
,2.352002,6.20E-12,,
,2.354002,7.27E-12,,
,2.356002,8.89E-12,,
,2.358002,9.74E-12,,
,2.360002,9.85E-12,,
,2.362002,8.67E-12,,
,2.364002,7.81E-12,,
,2.366002,7.17E-12,,
,2.368002,7.60E-12,,
,2.370002,8.67E-12,,
,2.372002,1.04E-11,,
,2.374002,1.17E-11,,
,2.376002,1.19E-11,,
,2.378002,1.09E-11,,
,2.380002,9.42E-12,,
,2.382002,8.46E-12,,
,2.384002,8.35E-12,,
,2.386002,8.89E-12,,
,2.388002,9.74E-12,,
,2.390002,1.05E-11,,
,2.392002,1.06E-11,,
,2.394002,9.74E-12,,
,2.396002,8.35E-12,,
,2.398002,7.27E-12,,
,2.400002,6.95E-12,,
,2.402002,7.70E-12,,
,2.404002,8.89E-12,,
,2.406002,1.04E-11,,
,2.408002,1.08E-11,,
,2.410002,1.05E-11,,
,2.412002,9.10E-12,,
,2.414002,7.81E-12,,
,2.416002,6.85E-12,,
,2.418002,6.74E-12,,
,2.420002,7.49E-12,,
,2.422002,8.78E-12,,
,2.424002,9.74E-12,,
,2.426002,9.85E-12,,
,2.428002,8.67E-12,,
,2.430002,7.27E-12,,
,2.432002,6.31E-12,,
,2.434002,6.52E-12,,
,2.436002,7.38E-12,,
,2.438002,8.56E-12,,
,2.440002,9.85E-12,,
,2.442002,1.01E-11,,
,2.444002,9.31E-12,,
,2.446002,7.38E-12,,
,2.448002,5.88E-12,,
,2.450002,5.02E-12,,
,2.452002,5.13E-12,,
,2.454002,5.77E-12,,
,2.456002,6.52E-12,,
,2.458002,6.63E-12,,
,2.460002,5.88E-12,,
,2.462002,4.27E-12,,
,2.464002,2.55E-12,,
,2.466002,1.48E-12,,
,2.468002,1.37E-12,,
,2.470002,2.23E-12,,
,2.472002,3.20E-12,,
,2.474002,3.84E-12,,
,2.476002,3.52E-12,,
,2.478002,2.01E-12,,
,2.480002,-2.53E-14,,
,2.482002,-1.74E-12,,
,2.484002,-2.71E-12,,
,2.486002,-2.82E-12,,
,2.488002,-2.71E-12,,
,2.490002,-2.07E-12,,
,2.492002,-2.28E-12,,
,2.494002,-3.46E-12,,
,2.496002,-5.39E-12,,
,2.498002,-7.33E-12,,
,2.500002,-8.29E-12,,
,2.502002,-8.61E-12,,
,2.504002,-8.08E-12,,
,2.506002,-7.33E-12,,
,2.508002,-7.11E-12,,
,2.510002,-8.18E-12,,
,2.512002,-1.01E-11,,
,2.514002,-1.24E-11,,
,2.516002,-1.39E-11,,
,2.518002,-1.49E-11,,
,2.520002,-1.49E-11,,
,2.522002,-1.47E-11,,
,2.524002,-1.44E-11,,
,2.526002,-1.54E-11,,
,2.528002,-1.71E-11,,
,2.530002,-1.95E-11,,
,2.532002,-2.10E-11,,
,2.534002,-2.17E-11,,
,2.536002,-2.15E-11,,
,2.538002,-2.10E-11,,
,2.540002,-2.06E-11,,
,2.542002,-2.11E-11,,
,2.544002,-2.28E-11,,
,2.546002,-2.49E-11,,
,2.548002,-2.70E-11,,
,2.550002,-2.80E-11,,
,2.552002,-2.84E-11,,
,2.554002,-2.82E-11,,
,2.556002,-2.77E-11,,
,2.558002,-2.79E-11,,
,2.560002,-2.88E-11,,
,2.562002,-3.06E-11,,
,2.564002,-3.23E-11,,
,2.566002,-3.37E-11,,
,2.568002,-3.43E-11,,
,2.570002,-3.38E-11,,
,2.572002,-3.29E-11,,
,2.574002,-3.21E-11,,
,2.576002,-3.24E-11,,
,2.578002,-3.38E-11,,
,2.580002,-3.60E-11,,
,2.582002,-3.76E-11,,
,2.584002,-3.86E-11,,
,2.586002,-3.84E-11,,
,2.588002,-3.79E-11,,
,2.590002,-3.74E-11,,
,2.592002,-3.76E-11,,
,2.594002,-3.87E-11,,
,2.596002,-4.05E-11,,
,2.598002,-4.19E-11,,
,2.600002,-4.28E-11,,
,2.602002,-4.25E-11,,
,2.604002,-4.16E-11,,
,2.606002,-4.03E-11,,
,2.608002,-3.96E-11,,
,2.610002,-4.06E-11,,
,2.612002,-4.23E-11,,
,2.614002,-4.41E-11,,
,2.616002,-4.52E-11,,
,2.618002,-4.58E-11,,
,2.620002,-4.52E-11,,
,2.622002,-4.45E-11,,
,2.624002,-4.35E-11,,
,2.626002,-4.38E-11,,
,2.628002,-4.47E-11,,
,2.630002,-4.63E-11,,
,2.632002,-4.69E-11,,
,2.634002,-4.68E-11,,
,2.636002,-4.57E-11,,
,2.638002,-4.38E-11,,
,2.640002,-4.22E-11,,
,2.642002,-4.15E-11,,
,2.644002,-4.20E-11,,
,2.646002,-4.32E-11,,
,2.648002,-4.40E-11,,
,2.650002,-4.44E-11,,
,2.652002,-4.37E-11,,
,2.654002,-4.25E-11,,
,2.656002,-4.14E-11,,
,2.658002,-4.05E-11,,
,2.660002,-4.04E-11,,
,2.662002,-4.08E-11,,
,2.664002,-4.16E-11,,
,2.666002,-4.17E-11,,
,2.668002,-4.07E-11,,
,2.670002,-3.87E-11,,
,2.672002,-3.61E-11,,
,2.674002,-3.42E-11,,
,2.676002,-3.31E-11,,
,2.678002,-3.33E-11,,
,2.680002,-3.39E-11,,
,2.682002,-3.44E-11,,
,2.684002,-3.43E-11,,
,2.686002,-3.30E-11,,
,2.688002,-3.12E-11,,
,2.690002,-2.92E-11,,
,2.692002,-2.84E-11,,
,2.694002,-2.84E-11,,
,2.696002,-2.91E-11,,
,2.698002,-2.95E-11,,
,2.700002,-2.95E-11,,
,2.702002,-2.85E-11,,
,2.704002,-2.66E-11,,
,2.706002,-2.46E-11,,
,2.708002,-2.31E-11,,
,2.710002,-2.29E-11,,
,2.712002,-2.35E-11,,
,2.714002,-2.41E-11,,
,2.716002,-2.42E-11,,
,2.718002,-2.33E-11,,
,2.720002,-2.21E-11,,
,2.722002,-2.02E-11,,
,2.724002,-1.88E-11,,
,2.726002,-1.81E-11,,
,2.728002,-1.85E-11,,
,2.730002,-1.91E-11,,
,2.732002,-1.93E-11,,
,2.734002,-1.87E-11,,
,2.736002,-1.72E-11,,
,2.738002,-1.52E-11,,
,2.740002,-1.30E-11,,
,2.742002,-1.16E-11,,
,2.744002,-1.15E-11,,
,2.746002,-1.23E-11,,
,2.748002,-1.28E-11,,
,2.750002,-1.26E-11,,
,2.752002,-1.15E-11,,
,2.754002,-9.90E-12,,
,2.756002,-8.18E-12,,
,2.758002,-7.00E-12,,
,2.760002,-7.00E-12,,
,2.762002,-7.86E-12,,
,2.764002,-8.61E-12,,
,2.766002,-8.72E-12,,
,2.768002,-7.86E-12,,
,2.770002,-6.14E-12,,
,2.772002,-4.10E-12,,
,2.774002,-2.39E-12,,
,2.776002,-1.96E-12,,
,2.778002,-2.49E-12,,
,2.780002,-3.46E-12,,
,2.782002,-4.10E-12,,
,2.784002,-4.00E-12,,
,2.786002,-3.03E-12,,
,2.788002,-1.42E-12,,
,2.790002,-2.53E-14,,
,2.792002,7.26E-13,,
,2.794002,2.97E-13,,
,2.796002,-3.47E-13,,
,2.798002,-1.10E-12,,
,2.800002,-1.21E-12,,
,2.802002,-3.47E-13,,
,2.804002,1.26E-12,,
,2.806002,3.41E-12,,
,2.808002,4.70E-12,,
,2.810002,4.91E-12,,
,2.812002,4.27E-12,,
,2.814002,3.30E-12,,
,2.816002,3.09E-12,,
,2.818002,3.30E-12,,
,2.820002,4.59E-12,,
,2.822002,6.09E-12,,
,2.824002,7.38E-12,,
,2.826002,7.49E-12,,
,2.828002,6.85E-12,,
,2.830002,5.77E-12,,
,2.832002,5.34E-12,,
,2.834002,5.56E-12,,
,2.836002,6.74E-12,,
,2.838002,8.35E-12,,
,2.840002,9.85E-12,,
,2.842002,1.05E-11,,
,2.844002,1.01E-11,,
,2.846002,8.99E-12,,
,2.848002,8.03E-12,,
,2.850002,7.38E-12,,
,2.852002,7.70E-12,,
,2.854002,8.78E-12,,
,2.856002,1.02E-11,,
,2.858002,1.09E-11,,
,2.860002,1.05E-11,,
,2.862002,9.42E-12,,
,2.864002,8.24E-12,,
,2.866002,7.60E-12,,
,2.868002,7.92E-12,,
,2.870002,8.89E-12,,
,2.872002,1.05E-11,,
,2.874002,1.18E-11,,
,2.876002,1.21E-11,,
,2.878002,1.14E-11,,
,2.880002,1.02E-11,,
,2.882002,9.10E-12,,
,2.884002,8.89E-12,,
,2.886002,9.31E-12,,
,2.888002,1.04E-11,,
,2.890002,1.16E-11,,
,2.892002,1.18E-11,,
,2.894002,1.14E-11,,
,2.896002,1.02E-11,,
,2.898002,9.42E-12,,
,2.900002,9.42E-12,,
,2.902002,9.96E-12,,
,2.904002,1.15E-11,,
,2.906002,1.26E-11,,
,2.908002,1.38E-11,,
,2.910002,1.36E-11,,
,2.912002,1.28E-11,,
,2.914002,1.17E-11,,
,2.916002,1.10E-11,,
,2.918002,1.12E-11,,
,2.920002,1.22E-11,,
,2.922002,1.36E-11,,
,2.924002,1.47E-11,,
,2.926002,1.46E-11,,
,2.928002,1.35E-11,,
,2.930002,1.22E-11,,
,2.932002,1.15E-11,,
,2.934002,1.17E-11,,
,2.936002,1.29E-11,,
,2.938002,1.45E-11,,
,2.940002,1.58E-11,,
,2.942002,1.65E-11,,
,2.944002,1.61E-11,,
,2.946002,1.53E-11,,
,2.948002,1.43E-11,,
,2.950002,1.40E-11,,
,2.952002,1.45E-11,,
,2.954002,1.58E-11,,
,2.956002,1.72E-11,,
,2.958002,1.81E-11,,
,2.960002,1.80E-11,,
,2.962002,1.72E-11,,
,2.964002,1.64E-11,,
,2.966002,1.61E-11,,
,2.968002,1.66E-11,,
,2.970002,1.79E-11,,
,2.972002,1.96E-11,,
,2.974002,2.09E-11,,
,2.976002,2.12E-11,,
,2.978002,2.06E-11,,
,2.980002,1.97E-11,,
,2.982002,1.89E-11,,
,2.984002,1.89E-11,,
,2.986002,1.94E-11,,
,2.988002,2.08E-11,,
,2.990002,2.21E-11,,
,2.992002,2.26E-11,,
,2.994002,2.20E-11,,
,2.996002,2.08E-11,,
,2.998002,1.98E-11,,
,3.000002,1.98E-11,,
,3.002002,2.06E-11,,
,3.004002,2.22E-11,,
,3.006002,2.38E-11,,
,3.008002,2.49E-11,,
,3.010002,2.49E-11,,
,3.012002,2.37E-11,,
,3.014002,2.24E-11,,
,3.016002,2.16E-11,,
,3.018002,2.18E-11,,
,3.020002,2.27E-11,,
,3.022002,2.39E-11,,
,3.024002,2.50E-11,,
,3.026002,2.49E-11,,
,3.028002,2.40E-11,,
,3.030002,2.24E-11,,
,3.032002,2.14E-11,,
,3.034002,2.13E-11,,
,3.036002,2.24E-11,,
,3.038002,2.36E-11,,
,3.040002,2.48E-11,,
,3.042002,2.50E-11,,
,3.044002,2.46E-11,,
,3.046002,2.31E-11,,
,3.048002,2.17E-11,,
,3.050002,2.10E-11,,
,3.052002,2.13E-11,,
,3.054002,2.22E-11,,
,3.056002,2.32E-11,,
,3.058002,2.36E-11,,
,3.060002,2.31E-11,,
,3.062002,2.16E-11,,
,3.064002,2.02E-11,,
,3.066002,1.94E-11,,
,3.068002,1.99E-11,,
,3.070002,2.10E-11,,
,3.072002,2.26E-11,,
,3.074002,2.37E-11,,
,3.076002,2.39E-11,,
,3.078002,2.31E-11,,
,3.080002,2.17E-11,,
,3.082002,2.08E-11,,
,3.084002,2.09E-11,,
,3.086002,2.16E-11,,
,3.088002,2.27E-11,,
,3.090002,2.36E-11,,
,3.092002,2.39E-11,,
,3.094002,2.32E-11,,
,3.096002,2.19E-11,,
,3.098002,2.08E-11,,
,3.100002,2.04E-11,,
,3.102002,2.11E-11,,
,3.104002,2.24E-11,,
,3.106002,2.42E-11,,
,3.108002,2.52E-11,,
,3.110002,2.53E-11,,
,3.112002,2.42E-11,,
,3.114002,2.32E-11,,
,3.116002,2.26E-11,,
,3.118002,2.33E-11,,
,3.120002,2.43E-11,,
,3.122002,2.61E-11,,
,3.124002,2.70E-11,,
,3.126002,2.74E-11,,
,3.128002,2.67E-11,,
,3.130002,2.58E-11,,
,3.132002,2.52E-11,,
,3.134002,2.54E-11,,
,3.136002,2.63E-11,,
,3.138002,2.82E-11,,
,3.140002,2.98E-11,,
,3.142002,3.07E-11,,
,3.144002,2.99E-11,,
,3.146002,2.87E-11,,
,3.148002,2.79E-11,,
,3.150002,2.78E-11,,
,3.152002,2.82E-11,,
,3.154002,2.92E-11,,
,3.156002,3.05E-11,,
,3.158002,3.12E-11,,
,3.160002,3.10E-11,,
,3.162002,3.01E-11,,
,3.164002,2.90E-11,,
,3.166002,2.85E-11,,
,3.168002,2.86E-11,,
,3.170002,2.99E-11,,
,3.172002,3.12E-11,,
,3.174002,3.24E-11,,
,3.176002,3.23E-11,,
,3.178002,3.16E-11,,
,3.180002,3.04E-11,,
,3.182002,2.94E-11,,
,3.184002,2.91E-11,,
,3.186002,2.97E-11,,
,3.188002,3.09E-11,,
,3.190002,3.19E-11,,
,3.192002,3.21E-11,,
,3.194002,3.13E-11,,
,3.196002,2.97E-11,,
,3.198002,2.82E-11,,
,3.200002,2.75E-11,,
,3.202002,2.80E-11,,
,3.204002,2.89E-11,,
,3.206002,2.99E-11,,
,3.208002,3.02E-11,,
,3.210002,2.99E-11,,
,3.212002,2.85E-11,,
,3.214002,2.70E-11,,
,3.216002,2.58E-11,,
,3.218002,2.56E-11,,
,3.220002,2.62E-11,,
,3.222002,2.71E-11,,
,3.224002,2.78E-11,,
,3.226002,2.75E-11,,
,3.228002,2.62E-11,,
,3.230002,2.43E-11,,
,3.232002,2.31E-11,,
,3.234002,2.26E-11,,
,3.236002,2.33E-11,,
,3.238002,2.42E-11,,
,3.240002,2.52E-11,,
,3.242002,2.53E-11,,
,3.244002,2.43E-11,,
,3.246002,2.25E-11,,
,3.248002,2.11E-11,,
,3.250002,2.04E-11,,
,3.252002,2.03E-11,,
,3.254002,2.08E-11,,
,3.256002,2.17E-11,,
,3.258002,2.23E-11,,
,3.260002,2.16E-11,,
,3.262002,1.99E-11,,
,3.264002,1.82E-11,,
,3.266002,1.73E-11,,
,3.268002,1.75E-11,,
,3.270002,1.82E-11,,
,3.272002,1.93E-11,,
,3.274002,1.98E-11,,
,3.276002,1.97E-11,,
,3.278002,1.85E-11,,
,3.280002,1.68E-11,,
,3.282002,1.52E-11,,
,3.284002,1.47E-11,,
,3.286002,1.51E-11,,
,3.288002,1.61E-11,,
,3.290002,1.69E-11,,
,3.292002,1.69E-11,,
,3.294002,1.61E-11,,
,3.296002,1.47E-11,,
,3.298002,1.35E-11,,
,3.300002,1.31E-11,,
,3.302002,1.32E-11,,
,3.304002,1.39E-11,,
,3.306002,1.49E-11,,
,3.308002,1.55E-11,,
,3.310002,1.53E-11,,
,3.312002,1.39E-11,,
,3.314002,1.23E-11,,
,3.316002,1.09E-11,,
,3.318002,1.09E-11,,
,3.320002,1.17E-11,,
,3.322002,1.29E-11,,
,3.324002,1.35E-11,,
,3.326002,1.32E-11,,
,3.328002,1.23E-11,,
,3.330002,1.10E-11,,
,3.332002,1.04E-11,,
,3.334002,1.04E-11,,
,3.336002,1.14E-11,,
,3.338002,1.29E-11,,
,3.340002,1.41E-11,,
,3.342002,1.46E-11,,
,3.344002,1.38E-11,,
,3.346002,1.23E-11,,
,3.348002,1.11E-11,,
,3.350002,1.07E-11,,
,3.352002,1.11E-11,,
,3.354002,1.21E-11,,
,3.356002,1.33E-11,,
,3.358002,1.41E-11,,
,3.360002,1.38E-11,,
,3.362002,1.28E-11,,
,3.364002,1.15E-11,,
,3.366002,1.10E-11,,
,3.368002,1.12E-11,,
,3.370002,1.24E-11,,
,3.372002,1.35E-11,,
,3.374002,1.45E-11,,
,3.376002,1.43E-11,,
,3.378002,1.34E-11,,
,3.380002,1.18E-11,,
,3.382002,1.05E-11,,
,3.384002,9.96E-12,,
,3.386002,1.05E-11,,
,3.388002,1.19E-11,,
,3.390002,1.33E-11,,
,3.392002,1.38E-11,,
,3.394002,1.30E-11,,
,3.396002,1.16E-11,,
,3.398002,1.02E-11,,
,3.400002,9.53E-12,,
,3.402002,9.74E-12,,
,3.404002,1.08E-11,,
,3.406002,1.21E-11,,
,3.408002,1.28E-11,,
,3.410002,1.25E-11,,
,3.412002,1.16E-11,,
,3.414002,1.04E-11,,
,3.416002,9.53E-12,,
,3.418002,9.74E-12,,
,3.420002,1.08E-11,,
,3.422002,1.22E-11,,
,3.424002,1.31E-11,,
,3.426002,1.29E-11,,
,3.428002,1.21E-11,,
,3.430002,1.07E-11,,
,3.432002,9.85E-12,,
,3.434002,9.31E-12,,
,3.436002,1.01E-11,,
,3.438002,1.12E-11,,
,3.440002,1.25E-11,,
,3.442002,1.29E-11,,
,3.444002,1.23E-11,,
,3.446002,1.11E-11,,
,3.448002,1.01E-11,,
,3.450002,9.53E-12,,
,3.452002,9.64E-12,,
,3.454002,1.06E-11,,
,3.456002,1.16E-11,,
,3.458002,1.22E-11,,
,3.460002,1.17E-11,,
,3.462002,1.04E-11,,
,3.464002,8.78E-12,,
,3.466002,7.92E-12,,
,3.468002,8.03E-12,,
,3.470002,9.21E-12,,
,3.472002,1.06E-11,,
,3.474002,1.18E-11,,
,3.476002,1.21E-11,,
,3.478002,1.14E-11,,
,3.480002,1.03E-11,,
,3.482002,9.31E-12,,
,3.484002,9.31E-12,,
,3.486002,9.96E-12,,
,3.488002,1.11E-11,,
,3.490002,1.20E-11,,
,3.492002,1.22E-11,,
,3.494002,1.12E-11,,
,3.496002,9.96E-12,,
,3.498002,8.67E-12,,
,3.500002,8.46E-12,,
,3.502002,8.89E-12,,
,3.504002,1.02E-11,,
,3.506002,1.15E-11,,
,3.508002,1.24E-11,,
,3.510002,1.23E-11,,
,3.512002,1.12E-11,,
,3.514002,9.96E-12,,
,3.516002,9.21E-12,,
,3.518002,9.21E-12,,
,3.520002,1.01E-11,,
,3.522002,1.10E-11,,
,3.524002,1.18E-11,,
,3.526002,1.16E-11,,
,3.528002,1.07E-11,,
,3.530002,9.42E-12,,
,3.532002,8.56E-12,,
,3.534002,8.67E-12,,
,3.536002,9.85E-12,,
,3.538002,1.16E-11,,
,3.540002,1.29E-11,,
,3.542002,1.36E-11,,
,3.544002,1.31E-11,,
,3.546002,1.21E-11,,
,3.548002,1.09E-11,,
,3.550002,1.04E-11,,
,3.552002,1.06E-11,,
,3.554002,1.15E-11,,
,3.556002,1.23E-11,,
,3.558002,1.25E-11,,
,3.560002,1.19E-11,,
,3.562002,1.08E-11,,
,3.564002,9.64E-12,,
,3.566002,9.10E-12,,
,3.568002,9.53E-12,,
,3.570002,1.09E-11,,
,3.572002,1.25E-11,,
,3.574002,1.39E-11,,
,3.576002,1.43E-11,,
,3.578002,1.33E-11,,
,3.580002,1.18E-11,,
,3.582002,1.07E-11,,
,3.584002,1.07E-11,,
,3.586002,1.12E-11,,
,3.588002,1.23E-11,,
,3.590002,1.36E-11,,
,3.592002,1.45E-11,,
,3.594002,1.43E-11,,
,3.596002,1.33E-11,,
,3.598002,1.23E-11,,
,3.600002,1.22E-11,,
,3.602002,1.29E-11,,
,3.604002,1.45E-11,,
,3.606002,1.61E-11,,
,3.608002,1.73E-11,,
,3.610002,1.68E-11,,
,3.612002,1.54E-11,,
,3.614002,1.36E-11,,
,3.616002,1.24E-11,,
,3.618002,1.23E-11,,
,3.620002,1.29E-11,,
,3.622002,1.39E-11,,
,3.624002,1.43E-11,,
,3.626002,1.41E-11,,
,3.628002,1.28E-11,,
,3.630002,1.12E-11,,
,3.632002,9.85E-12,,
,3.634002,9.64E-12,,
,3.636002,1.02E-11,,
,3.638002,1.12E-11,,
,3.640002,1.21E-11,,
,3.642002,1.22E-11,,
,3.644002,1.15E-11,,
,3.646002,9.74E-12,,
,3.648002,8.35E-12,,
,3.650002,7.70E-12,,
,3.652002,8.24E-12,,
,3.654002,9.31E-12,,
,3.656002,1.04E-11,,
,3.658002,1.10E-11,,
,3.660002,1.08E-11,,
,3.662002,9.64E-12,,
,3.664002,8.24E-12,,
,3.666002,7.38E-12,,
,3.668002,7.49E-12,,
,3.670002,8.56E-12,,
,3.672002,9.96E-12,,
,3.674002,1.09E-11,,
,3.676002,1.06E-11,,
,3.678002,9.21E-12,,
,3.680002,7.49E-12,,
,3.682002,6.31E-12,,
,3.684002,5.99E-12,,
,3.686002,6.42E-12,,
,3.688002,7.27E-12,,
,3.690002,8.03E-12,,
,3.692002,8.03E-12,,
,3.694002,7.17E-12,,
,3.696002,5.45E-12,,
,3.698002,3.84E-12,,
,3.700002,2.87E-12,,
,3.702002,3.09E-12,,
,3.704002,4.27E-12,,
,3.706002,5.34E-12,,
,3.708002,5.66E-12,,
,3.710002,4.81E-12,,
,3.712002,3.41E-12,,
,3.714002,1.80E-12,,
,3.716002,8.34E-13,,
,3.718002,9.41E-13,,
,3.720002,2.01E-12,,
,3.722002,3.09E-12,,
,3.724002,3.62E-12,,
,3.726002,3.30E-12,,
,3.728002,2.12E-12,,
,3.730002,4.04E-13,,
,3.732002,-9.92E-13,,
,3.734002,-1.42E-12,,
,3.736002,-9.92E-13,,
,3.738002,1.89E-13,,
,3.740002,1.37E-12,,
,3.742002,1.69E-12,,
,3.744002,9.41E-13,,
,3.746002,-3.47E-13,,
,3.748002,-1.42E-12,,
,3.750002,-1.74E-12,,
,3.752002,-1.64E-12,,
,3.754002,-4.55E-13,,
,3.756002,7.26E-13,,
,3.758002,1.37E-12,,
,3.760002,9.41E-13,,
,3.762002,-4.55E-13,,
,3.764002,-1.42E-12,,
,3.766002,-2.07E-12,,
,3.768002,-1.74E-12,,
,3.770002,-6.69E-13,,
,3.772002,7.26E-13,,
,3.774002,1.91E-12,,
,3.776002,2.01E-12,,
,3.778002,1.16E-12,,
,3.780002,-1.33E-13,,
,3.782002,-1.31E-12,,
,3.784002,-1.42E-12,,
,3.786002,-7.77E-13,,
,3.788002,9.41E-13,,
,3.790002,2.34E-12,,
,3.792002,2.98E-12,,
,3.794002,2.12E-12,,
,3.796002,7.26E-13,,
,3.798002,-4.55E-13,,
,3.800002,-7.77E-13,,
,3.802002,8.20E-14,,
,3.804002,1.59E-12,,
,3.806002,3.20E-12,,
,3.808002,4.16E-12,,
,3.810002,3.95E-12,,
,3.812002,2.98E-12,,
,3.814002,1.69E-12,,
,3.816002,1.26E-12,,
,3.818002,1.69E-12,,
,3.820002,2.77E-12,,
,3.822002,4.05E-12,,
,3.824002,5.02E-12,,
,3.826002,5.02E-12,,
,3.828002,4.48E-12,,
,3.830002,3.20E-12,,
,3.832002,2.55E-12,,
,3.834002,2.23E-12,,
,3.836002,3.09E-12,,
,3.838002,4.48E-12,,
,3.840002,5.77E-12,,
,3.842002,6.42E-12,,
,3.844002,6.20E-12,,
,3.846002,5.34E-12,,
,3.848002,4.48E-12,,
,3.850002,3.84E-12,,
,3.852002,4.38E-12,,
,3.854002,5.34E-12,,
,3.856002,6.85E-12,,
,3.858002,7.81E-12,,
,3.860002,8.03E-12,,
,3.862002,7.17E-12,,
,3.864002,6.20E-12,,
,3.866002,5.56E-12,,
,3.868002,6.09E-12,,
,3.870002,7.27E-12,,
,3.872002,8.99E-12,,
,3.874002,9.96E-12,,
,3.876002,1.02E-11,,
,3.878002,9.42E-12,,
,3.880002,8.35E-12,,
,3.882002,7.49E-12,,
,3.884002,7.27E-12,,
,3.886002,7.92E-12,,
,3.888002,9.10E-12,,
,3.890002,1.01E-11,,
,3.892002,1.05E-11,,
,3.894002,9.96E-12,,
,3.896002,8.99E-12,,
,3.898002,8.03E-12,,
,3.900002,7.81E-12,,
,3.902002,8.67E-12,,
,3.904002,1.02E-11,,
,3.906002,1.16E-11,,
,3.908002,1.22E-11,,
,3.910002,1.18E-11,,
,3.912002,1.05E-11,,
,3.914002,8.99E-12,,
,3.916002,8.13E-12,,
,3.918002,8.35E-12,,
,3.920002,9.42E-12,,
,3.922002,1.08E-11,,
,3.924002,1.16E-11,,
,3.926002,1.16E-11,,
,3.928002,1.03E-11,,
,3.930002,8.89E-12,,
,3.932002,8.03E-12,,
,3.934002,7.92E-12,,
,3.936002,8.78E-12,,
,3.938002,9.74E-12,,
,3.940002,1.10E-11,,
,3.942002,1.11E-11,,
,3.944002,1.06E-11,,
,3.946002,9.31E-12,,
,3.948002,8.13E-12,,
,3.950002,7.49E-12,,
,3.952002,7.60E-12,,
,3.954002,8.67E-12,,
,3.956002,9.85E-12,,
,3.958002,1.08E-11,,
,3.960002,1.06E-11,,
,3.962002,9.42E-12,,
,3.964002,8.13E-12,,
,3.966002,7.17E-12,,
,3.968002,7.06E-12,,
,3.970002,7.70E-12,,
,3.972002,9.10E-12,,
,3.974002,1.02E-11,,
,3.976002,9.96E-12,,
,3.978002,8.56E-12,,
,3.980002,6.74E-12,,
,3.982002,5.56E-12,,
,3.984002,5.24E-12,,
,3.986002,5.88E-12,,
,3.988002,6.85E-12,,
,3.990002,7.92E-12,,
,3.992002,7.81E-12,,
,3.994002,6.95E-12,,
,3.996002,5.24E-12,,
,3.998002,4.16E-12,,
,4.000002,3.62E-12,,
,4.002002,3.73E-12,,
,4.004002,4.48E-12,,
,4.006002,5.34E-12,,
,4.008002,5.77E-12,,
,4.010002,5.13E-12,,
,4.012002,3.52E-12,,
,4.014002,2.01E-12,,
,4.016002,1.05E-12,,
,4.018002,1.16E-12,,
,4.020002,1.91E-12,,
,4.022002,3.09E-12,,
,4.024002,3.73E-12,,
,4.026002,3.73E-12,,
,4.028002,2.44E-12,,
,4.030002,1.05E-12,,
,4.032002,-3.47E-13,,
,4.034002,-6.69E-13,,
,4.036002,-2.53E-14,,
,4.038002,1.05E-12,,
,4.040002,1.91E-12,,
,4.042002,1.69E-12,,
,4.044002,8.34E-13,,
,4.046002,-5.62E-13,,
,4.048002,-1.85E-12,,
,4.050002,-2.49E-12,,
,4.052002,-2.17E-12,,
,4.054002,-8.84E-13,,
,4.056002,4.04E-13,,
,4.058002,1.05E-12,,
,4.060002,6.19E-13,,
,4.062002,-7.77E-13,,
,4.064002,-2.17E-12,,
,4.066002,-2.92E-12,,
,4.068002,-2.60E-12,,
,4.070002,-1.53E-12,,
,4.072002,-2.40E-13,,
,4.074002,8.34E-13,,
,4.076002,1.16E-12,,
,4.078002,2.97E-13,,
,4.080002,-9.92E-13,,
,4.082002,-1.85E-12,,
,4.084002,-1.74E-12,,
,4.086002,-7.77E-13,,
,4.088002,6.19E-13,,
,4.090002,2.01E-12,,
,4.092002,2.34E-12,,
,4.094002,1.48E-12,,
,4.096002,8.20E-14,,
,4.098002,-1.10E-12,,
,4.100002,-1.31E-12,,
,4.102002,-7.77E-13,,
,4.104002,7.26E-13,,
,4.106002,2.34E-12,,
,4.108002,3.20E-12,,
,4.110002,3.09E-12,,
,4.112002,2.12E-12,,
,4.114002,1.26E-12,,
,4.116002,9.41E-13,,
,4.118002,1.48E-12,,
,4.120002,2.77E-12,,
,4.122002,4.27E-12,,
,4.124002,5.02E-12,,
,4.126002,5.02E-12,,
,4.128002,4.05E-12,,
,4.130002,2.98E-12,,
,4.132002,1.91E-12,,
,4.134002,1.59E-12,,
,4.136002,2.23E-12,,
,4.138002,3.52E-12,,
,4.140002,4.70E-12,,
,4.142002,5.02E-12,,
,4.144002,4.38E-12,,
,4.146002,3.30E-12,,
,4.148002,2.34E-12,,
,4.150002,2.34E-12,,
,4.152002,3.20E-12,,
,4.154002,4.59E-12,,
,4.156002,5.99E-12,,
,4.158002,6.74E-12,,
,4.160002,6.31E-12,,
,4.162002,4.91E-12,,
,4.164002,3.52E-12,,
,4.166002,3.09E-12,,
,4.168002,3.73E-12,,
,4.170002,5.02E-12,,
,4.172002,6.42E-12,,
,4.174002,7.70E-12,,
,4.176002,8.13E-12,,
,4.178002,7.70E-12,,
,4.180002,6.52E-12,,
,4.182002,5.88E-12,,
,4.184002,6.09E-12,,
,4.186002,7.27E-12,,
,4.188002,8.56E-12,,
,4.190002,9.96E-12,,
,4.192002,1.05E-11,,
,4.194002,9.96E-12,,
,4.196002,8.67E-12,,
,4.198002,7.49E-12,,
,4.200002,7.27E-12,,
,4.202002,7.81E-12,,
,4.204002,8.99E-12,,
,4.206002,1.04E-11,,
,4.208002,1.14E-11,,
,4.210002,1.12E-11,,
,4.212002,1.02E-11,,
,4.214002,8.89E-12,,
,4.216002,8.03E-12,,
,4.218002,8.03E-12,,
,4.220002,8.99E-12,,
,4.222002,1.04E-11,,
,4.224002,1.12E-11,,
,4.226002,1.08E-11,,
,4.228002,9.64E-12,,
,4.230002,8.24E-12,,
,4.232002,7.49E-12,,
,4.234002,7.49E-12,,
,4.236002,8.24E-12,,
,4.238002,9.64E-12,,
,4.240002,1.07E-11,,
,4.242002,1.12E-11,,
,4.244002,1.06E-11,,
,4.246002,9.53E-12,,
,4.248002,8.35E-12,,
,4.250002,7.81E-12,,
,4.252002,8.03E-12,,
,4.254002,8.99E-12,,
,4.256002,1.02E-11,,
,4.258002,1.07E-11,,
,4.260002,1.03E-11,,
,4.262002,8.89E-12,,
,4.264002,7.60E-12,,
,4.266002,6.74E-12,,
,4.268002,6.95E-12,,
,4.270002,7.70E-12,,
,4.272002,8.89E-12,,
,4.274002,9.64E-12,,
,4.276002,9.64E-12,,
,4.278002,8.67E-12,,
,4.280002,7.06E-12,,
,4.282002,5.88E-12,,
,4.284002,5.45E-12,,
,4.286002,5.88E-12,,
,4.288002,6.63E-12,,
,4.290002,7.38E-12,,
,4.292002,7.49E-12,,
,4.294002,6.63E-12,,
,4.296002,5.13E-12,,
,4.298002,3.62E-12,,
,4.300002,2.98E-12,,
,4.302002,3.30E-12,,
,4.304002,4.16E-12,,
,4.306002,5.02E-12,,
,4.308002,5.34E-12,,
,4.310002,4.91E-12,,
,4.312002,3.52E-12,,
,4.314002,2.01E-12,,
,4.316002,1.16E-12,,
,4.318002,1.26E-12,,
,4.320002,2.23E-12,,
,4.322002,3.09E-12,,
,4.324002,3.73E-12,,
,4.326002,3.30E-12,,
,4.328002,2.23E-12,,
,4.330002,5.11E-13,,
,4.332002,-6.69E-13,,
,4.334002,-1.21E-12,,
,4.336002,-5.62E-13,,
,4.338002,4.04E-13,,
,4.340002,1.48E-12,,
,4.342002,1.59E-12,,
,4.344002,6.19E-13,,
,4.346002,-7.77E-13,,
,4.348002,-2.07E-12,,
,4.350002,-2.60E-12,,
,4.352002,-2.49E-12,,
,4.354002,-1.74E-12,,
,4.356002,-7.77E-13,,
,4.358002,-2.40E-13,,
,4.360002,-7.77E-13,,
,4.362002,-2.17E-12,,
,4.364002,-3.68E-12,,
,4.366002,-4.43E-12,,
,4.368002,-4.32E-12,,
,4.370002,-3.68E-12,,
,4.372002,-2.71E-12,,
,4.374002,-1.96E-12,,
,4.376002,-1.96E-12,,
,4.378002,-2.71E-12,,
,4.380002,-4.00E-12,,
,4.382002,-4.96E-12,,
,4.384002,-5.18E-12,,
,4.386002,-4.43E-12,,
,4.388002,-3.25E-12,,
,4.390002,-2.07E-12,,
,4.392002,-1.96E-12,,
,4.394002,-2.71E-12,,
,4.396002,-4.43E-12,,
,4.398002,-5.72E-12,,
,4.400002,-6.57E-12,,
,4.402002,-6.04E-12,,
,4.404002,-4.96E-12,,
,4.406002,-3.46E-12,,
,4.408002,-2.82E-12,,
,4.410002,-3.03E-12,,
,4.412002,-4.32E-12,,
,4.414002,-5.72E-12,,
,4.416002,-6.68E-12,,
,4.418002,-6.57E-12,,
,4.420002,-5.72E-12,,
,4.422002,-4.64E-12,,
,4.424002,-3.78E-12,,
,4.426002,-4.10E-12,,
,4.428002,-5.18E-12,,
,4.430002,-6.79E-12,,
,4.432002,-7.86E-12,,
,4.434002,-8.18E-12,,
,4.436002,-7.54E-12,,
,4.438002,-6.14E-12,,
,4.440002,-4.75E-12,,
,4.442002,-4.32E-12,,
,4.444002,-4.86E-12,,
,4.446002,-6.04E-12,,
,4.448002,-7.22E-12,,
,4.450002,-7.86E-12,,
,4.452002,-7.75E-12,,
,4.454002,-6.79E-12,,
,4.456002,-5.82E-12,,
,4.458002,-5.50E-12,,
,4.460002,-6.04E-12,,
,4.462002,-7.43E-12,,
,4.464002,-8.83E-12,,
,4.466002,-9.58E-12,,
,4.468002,-9.47E-12,,
,4.470002,-8.61E-12,,
,4.472002,-7.33E-12,,
,4.474002,-6.36E-12,,
,4.476002,-6.14E-12,,
,4.478002,-6.90E-12,,
,4.480002,-7.97E-12,,
,4.482002,-8.61E-12,,
,4.484002,-8.40E-12,,
,4.486002,-7.43E-12,,
,4.488002,-6.04E-12,,
,4.490002,-4.86E-12,,
,4.492002,-4.53E-12,,
,4.494002,-5.29E-12,,
,4.496002,-6.68E-12,,
,4.498002,-7.86E-12,,
,4.500002,-8.18E-12,,
,4.502002,-7.75E-12,,
,4.504002,-6.25E-12,,
,4.506002,-4.75E-12,,
,4.508002,-3.78E-12,,
,4.510002,-3.68E-12,,
,4.512002,-4.43E-12,,
,4.514002,-5.50E-12,,
,4.516002,-6.25E-12,,
,4.518002,-5.93E-12,,
,4.520002,-4.96E-12,,
,4.522002,-3.68E-12,,
,4.524002,-3.25E-12,,
,4.526002,-3.35E-12,,
,4.528002,-4.53E-12,,
,4.530002,-5.61E-12,,
,4.532002,-6.57E-12,,
,4.534002,-6.79E-12,,
,4.536002,-6.14E-12,,
,4.538002,-4.64E-12,,
,4.540002,-3.03E-12,,
,4.542002,-2.60E-12,,
,4.544002,-3.46E-12,,
,4.546002,-4.96E-12,,
,4.548002,-5.93E-12,,
,4.550002,-6.36E-12,,
,4.552002,-5.93E-12,,
,4.554002,-5.07E-12,,
,4.556002,-4.10E-12,,
,4.558002,-4.00E-12,,
,4.560002,-4.75E-12,,
,4.562002,-6.04E-12,,
,4.564002,-7.22E-12,,
,4.566002,-7.97E-12,,
,4.568002,-7.86E-12,,
,4.570002,-6.79E-12,,
,4.572002,-4.86E-12,,
,4.574002,-3.46E-12,,
,4.576002,-3.25E-12,,
,4.578002,-4.21E-12,,
,4.580002,-5.07E-12,,
,4.582002,-5.72E-12,,
,4.584002,-5.72E-12,,
,4.586002,-5.07E-12,,
,4.588002,-3.89E-12,,
,4.590002,-2.82E-12,,
,4.592002,-2.71E-12,,
,4.594002,-3.46E-12,,
,4.596002,-4.96E-12,,
,4.598002,-6.04E-12,,
,4.600002,-6.57E-12,,
,4.602002,-6.25E-12,,
,4.604002,-5.50E-12,,
,4.606002,-4.21E-12,,
,4.608002,-3.35E-12,,
,4.610002,-3.57E-12,,
,4.612002,-4.75E-12,,
,4.614002,-6.04E-12,,
,4.616002,-6.47E-12,,
,4.618002,-6.47E-12,,
,4.620002,-5.39E-12,,
,4.622002,-4.43E-12,,
,4.624002,-3.46E-12,,
,4.626002,-3.78E-12,,
,4.628002,-4.86E-12,,
,4.630002,-6.36E-12,,
,4.632002,-7.54E-12,,
,4.634002,-7.75E-12,,
,4.636002,-6.90E-12,,
,4.638002,-5.50E-12,,
,4.640002,-4.21E-12,,
,4.642002,-4.10E-12,,
,4.644002,-4.64E-12,,
,4.646002,-5.82E-12,,
,4.648002,-6.57E-12,,
,4.650002,-6.90E-12,,
,4.652002,-6.36E-12,,
,4.654002,-5.29E-12,,
,4.656002,-4.10E-12,,
,4.658002,-3.57E-12,,
,4.660002,-4.00E-12,,
,4.662002,-5.18E-12,,
,4.664002,-6.68E-12,,
,4.666002,-7.33E-12,,
,4.668002,-7.22E-12,,
,4.670002,-6.04E-12,,
,4.672002,-4.86E-12,,
,4.674002,-3.78E-12,,
,4.676002,-3.89E-12,,
,4.678002,-4.75E-12,,
,4.680002,-6.14E-12,,
,4.682002,-7.11E-12,,
,4.684002,-7.43E-12,,
,4.686002,-6.90E-12,,
,4.688002,-5.82E-12,,
,4.690002,-4.64E-12,,
,4.692002,-4.32E-12,,
,4.694002,-4.96E-12,,
,4.696002,-6.57E-12,,
,4.698002,-7.75E-12,,
,4.700002,-8.40E-12,,
,4.702002,-7.86E-12,,
,4.704002,-6.79E-12,,
,4.706002,-5.50E-12,,
,4.708002,-4.86E-12,,
,4.710002,-5.18E-12,,
,4.712002,-6.25E-12,,
,4.714002,-7.33E-12,,
,4.716002,-8.18E-12,,
,4.718002,-7.97E-12,,
,4.720002,-7.00E-12,,
,4.722002,-5.72E-12,,
,4.724002,-4.86E-12,,
,4.726002,-4.96E-12,,
,4.728002,-5.93E-12,,
,4.730002,-7.11E-12,,
,4.732002,-7.97E-12,,
,4.734002,-7.75E-12,,
,4.736002,-7.00E-12,,
,4.738002,-5.72E-12,,
,4.740002,-4.64E-12,,
,4.742002,-3.89E-12,,
,4.744002,-4.21E-12,,
,4.746002,-5.29E-12,,
,4.748002,-6.14E-12,,
,4.750002,-6.25E-12,,
,4.752002,-5.50E-12,,
,4.754002,-4.43E-12,,
,4.756002,-3.35E-12,,
,4.758002,-2.82E-12,,
,4.760002,-3.35E-12,,
,4.762002,-4.53E-12,,
,4.764002,-5.93E-12,,
,4.766002,-6.57E-12,,
,4.768002,-6.36E-12,,
,4.770002,-5.29E-12,,
,4.772002,-4.00E-12,,
,4.774002,-2.82E-12,,
,4.776002,-2.60E-12,,
,4.778002,-3.14E-12,,
,4.780002,-4.32E-12,,
,4.782002,-5.07E-12,,
,4.784002,-5.50E-12,,
,4.786002,-4.96E-12,,
,4.788002,-3.89E-12,,
,4.790002,-2.60E-12,,
,4.792002,-2.28E-12,,
,4.794002,-2.82E-12,,
,4.796002,-4.00E-12,,
,4.798002,-4.86E-12,,
,4.800002,-5.39E-12,,
,4.802002,-4.86E-12,,
,4.804002,-3.89E-12,,
,4.806002,-2.39E-12,,
,4.808002,-1.74E-12,,
,4.810002,-2.07E-12,,
,4.812002,-3.25E-12,,
,4.814002,-4.43E-12,,
,4.816002,-5.07E-12,,
,4.818002,-4.86E-12,,
,4.820002,-3.89E-12,,
,4.822002,-2.71E-12,,
,4.824002,-1.96E-12,,
,4.826002,-2.17E-12,,
,4.828002,-3.14E-12,,
,4.830002,-4.43E-12,,
,4.832002,-5.18E-12,,
,4.834002,-5.07E-12,,
,4.836002,-4.00E-12,,
,4.838002,-2.39E-12,,
,4.840002,-8.84E-13,,
,4.842002,-2.40E-13,,
,4.844002,-8.84E-13,,
,4.846002,-1.96E-12,,
,4.848002,-3.03E-12,,
,4.850002,-3.14E-12,,
,4.852002,-2.49E-12,,
,4.854002,-1.31E-12,,
,4.856002,-1.33E-13,,
,4.858002,4.04E-13,,
,4.860002,1.89E-13,,
,4.862002,-8.84E-13,,
,4.864002,-2.28E-12,,
,4.866002,-3.03E-12,,
,4.868002,-2.71E-12,,
,4.870002,-1.53E-12,,
,4.872002,-2.40E-13,,
,4.874002,7.26E-13,,
,4.876002,1.05E-12,,
,4.878002,1.89E-13,,
,4.880002,-1.10E-12,,
,4.882002,-2.39E-12,,
,4.884002,-2.49E-12,,
,4.886002,-1.74E-12,,
,4.888002,-4.55E-13,,
,4.890002,8.34E-13,,
,4.892002,1.16E-12,,
,4.894002,5.11E-13,,
,4.896002,-9.92E-13,,
,4.898002,-2.28E-12,,
,4.900002,-2.49E-12,,
,4.902002,-1.96E-12,,
,4.904002,-6.69E-13,,
,4.906002,8.34E-13,,
,4.908002,1.91E-12,,
,4.910002,1.91E-12,,
,4.912002,7.26E-13,,
,4.914002,-4.55E-13,,
,4.916002,-1.10E-12,,
,4.918002,-1.10E-12,,
,4.920002,-2.40E-13,,
,4.922002,8.34E-13,,
,4.924002,1.91E-12,,
,4.926002,1.69E-12,,
,4.928002,8.34E-13,,
,4.930002,-7.77E-13,,
,4.932002,-1.64E-12,,
,4.934002,-2.17E-12,,
,4.936002,-1.42E-12,,
,4.938002,-3.47E-13,,
,4.940002,8.34E-13,,
,4.942002,1.37E-12,,
,4.944002,8.34E-13,,
,4.946002,-1.33E-13,,
,4.948002,-1.21E-12,,
,4.950002,-1.53E-12,,
,4.952002,-1.10E-12,,
,4.954002,-2.53E-14,,
,4.956002,1.26E-12,,
,4.958002,2.01E-12,,
,4.960002,1.48E-12,,
,4.962002,1.89E-13,,
,4.964002,-1.42E-12,,
,4.966002,-1.96E-12,,
,4.968002,-1.85E-12,,
,4.970002,-6.69E-13,,
,4.972002,7.26E-13,,
,4.974002,2.01E-12,,
,4.976002,2.34E-12,,
,4.978002,1.59E-12,,
,4.980002,6.19E-13,,
,4.982002,-2.40E-13,,
,4.984002,-1.33E-13,,
,4.986002,6.19E-13,,
,4.988002,2.12E-12,,
,4.990002,3.20E-12,,
,4.992002,3.62E-12,,
,4.994002,2.87E-12,,
,4.996002,1.59E-12,,
,4.998002,4.04E-13,,
,5.000002,1.89E-13,,
,5.002002,9.41E-13,,
,5.004002,2.55E-12,,
,5.006002,4.16E-12,,
,5.008002,5.13E-12,,
,5.010002,5.02E-12,,
,5.012002,4.05E-12,,
,5.014002,3.20E-12,,
,5.016002,2.34E-12,,
,5.018002,2.66E-12,,
,5.020002,3.62E-12,,
,5.022002,5.45E-12,,
,5.024002,6.42E-12,,
,5.026002,6.31E-12,,
,5.028002,4.91E-12,,
,5.030002,3.52E-12,,
,5.032002,2.66E-12,,
,5.034002,2.87E-12,,
,5.036002,3.95E-12,,
,5.038002,5.45E-12,,
,5.040002,6.74E-12,,
,5.042002,7.17E-12,,
,5.044002,6.63E-12,,
,5.046002,5.45E-12,,
,5.048002,4.38E-12,,
,5.050002,4.05E-12,,
,5.052002,4.59E-12,,
,5.054002,5.77E-12,,
,5.056002,6.95E-12,,
,5.058002,7.49E-12,,
,5.060002,6.74E-12,,
,5.062002,5.34E-12,,
,5.064002,4.05E-12,,
,5.066002,3.52E-12,,
,5.068002,3.73E-12,,
,5.070002,4.70E-12,,
,5.072002,6.09E-12,,
,5.074002,7.06E-12,,
,5.076002,7.06E-12,,
,5.078002,5.88E-12,,
,5.080002,4.70E-12,,
,5.082002,3.52E-12,,
,5.084002,3.52E-12,,
,5.086002,4.05E-12,,
,5.088002,5.45E-12,,
,5.090002,6.63E-12,,
,5.092002,6.95E-12,,
,5.094002,6.20E-12,,
,5.096002,4.48E-12,,
,5.098002,3.30E-12,,
,5.100002,2.87E-12,,
,5.102002,3.41E-12,,
,5.104002,4.48E-12,,
,5.106002,5.56E-12,,
,5.108002,6.31E-12,,
,5.110002,5.77E-12,,
,5.112002,4.81E-12,,
,5.114002,3.73E-12,,
,5.116002,3.30E-12,,
,5.118002,3.41E-12,,
,5.120002,4.27E-12,,
,5.122002,5.77E-12,,
,5.124002,6.85E-12,,
,5.126002,7.06E-12,,
,5.128002,5.88E-12,,
,5.130002,4.48E-12,,
,5.132002,3.30E-12,,
,5.134002,3.09E-12,,
,5.136002,3.73E-12,,
,5.138002,4.59E-12,,
,5.140002,5.56E-12,,
,5.142002,5.56E-12,,
,5.144002,5.02E-12,,
,5.146002,3.52E-12,,
,5.148002,2.34E-12,,
,5.150002,1.80E-12,,
,5.152002,2.34E-12,,
,5.154002,3.41E-12,,
,5.156002,4.48E-12,,
,5.158002,4.91E-12,,
,5.160002,4.59E-12,,
,5.162002,3.30E-12,,
,5.164002,1.91E-12,,
,5.166002,9.41E-13,,
,5.168002,1.26E-12,,
,5.170002,2.12E-12,,
,5.172002,3.62E-12,,
,5.174002,4.59E-12,,
,5.176002,5.13E-12,,
,5.178002,4.27E-12,,
,5.180002,3.20E-12,,
,5.182002,2.34E-12,,
,5.184002,2.44E-12,,
,5.186002,3.30E-12,,
,5.188002,4.70E-12,,
,5.190002,5.77E-12,,
,5.192002,6.09E-12,,
,5.194002,5.13E-12,,
,5.196002,3.73E-12,,
,5.198002,2.23E-12,,
,5.200002,1.59E-12,,
,5.202002,1.69E-12,,
,5.204002,2.77E-12,,
,5.206002,4.16E-12,,
,5.208002,5.13E-12,,
,5.210002,4.91E-12,,
,5.212002,3.73E-12,,
,5.214002,2.44E-12,,
,5.216002,1.69E-12,,
,5.218002,2.01E-12,,
,5.220002,2.77E-12,,
,5.222002,4.16E-12,,
,5.224002,4.81E-12,,
,5.226002,4.91E-12,,
,5.228002,3.73E-12,,
,5.230002,2.12E-12,,
,5.232002,7.26E-13,,
,5.234002,2.97E-13,,
,5.236002,1.16E-12,,
,5.238002,2.77E-12,,
,5.240002,4.48E-12,,
,5.242002,5.24E-12,,
,5.244002,4.91E-12,,
,5.246002,4.05E-12,,
,5.248002,3.41E-12,,
,5.250002,3.52E-12,,
,5.252002,4.05E-12,,
,5.254002,5.56E-12,,
,5.256002,6.85E-12,,
,5.258002,7.81E-12,,
,5.260002,7.27E-12,,
,5.262002,5.99E-12,,
,5.264002,4.38E-12,,
,5.266002,3.62E-12,,
,5.268002,3.84E-12,,
,5.270002,5.13E-12,,
,5.272002,6.95E-12,,
,5.274002,8.56E-12,,
,5.276002,8.99E-12,,
,5.278002,8.56E-12,,
,5.280002,7.70E-12,,
,5.282002,7.27E-12,,
,5.284002,7.27E-12,,
,5.286002,8.03E-12,,
,5.288002,9.31E-12,,
,5.290002,1.04E-11,,
,5.292002,1.06E-11,,
,5.294002,9.85E-12,,
,5.296002,8.24E-12,,
,5.298002,6.85E-12,,
,5.300002,5.99E-12,,
,5.302002,6.31E-12,,
,5.304002,7.49E-12,,
,5.306002,8.89E-12,,
,5.308002,9.85E-12,,
,5.310002,9.74E-12,,
,5.312002,8.78E-12,,
,5.314002,7.70E-12,,
,5.316002,6.95E-12,,
,5.318002,7.17E-12,,
,5.320002,7.92E-12,,
,5.322002,9.21E-12,,
,5.324002,9.85E-12,,
,5.326002,9.53E-12,,
,5.328002,8.24E-12,,
,5.330002,6.42E-12,,
,5.332002,4.91E-12,,
,5.334002,4.16E-12,,
,5.336002,4.59E-12,,
,5.338002,5.88E-12,,
,5.340002,7.38E-12,,
,5.342002,8.13E-12,,
,5.344002,7.92E-12,,
,5.346002,6.85E-12,,
,5.348002,5.88E-12,,
,5.350002,5.45E-12,,
,5.352002,5.56E-12,,
,5.354002,6.42E-12,,
,5.356002,7.38E-12,,
,5.358002,7.92E-12,,
,5.360002,7.27E-12,,
,5.362002,5.66E-12,,
,5.364002,4.05E-12,,
,5.366002,3.09E-12,,
,5.368002,3.30E-12,,
,5.370002,4.38E-12,,
,5.372002,5.99E-12,,
,5.374002,7.38E-12,,
,5.376002,8.03E-12,,
,5.378002,7.81E-12,,
,5.380002,6.95E-12,,
,5.382002,6.63E-12,,
,5.384002,6.63E-12,,
,5.386002,7.70E-12,,
,5.388002,8.99E-12,,
,5.390002,1.04E-11,,
,5.392002,1.07E-11,,
,5.394002,1.02E-11,,
,5.396002,8.99E-12,,
,5.398002,7.92E-12,,
,5.400002,7.38E-12,,
,5.402002,7.70E-12,,
,5.404002,8.78E-12,,
,5.406002,9.85E-12,,
,5.408002,1.05E-11,,
,5.410002,9.96E-12,,
,5.412002,8.78E-12,,
,5.414002,7.27E-12,,
,5.416002,6.42E-12,,
,5.418002,6.31E-12,,
,5.420002,7.06E-12,,
,5.422002,7.92E-12,,
,5.424002,8.56E-12,,
,5.426002,8.13E-12,,
,5.428002,6.63E-12,,
,5.430002,4.48E-12,,
,5.432002,2.98E-12,,
,5.434002,2.55E-12,,
,5.436002,2.98E-12,,
,5.438002,3.95E-12,,
,5.440002,5.13E-12,,
,5.442002,5.34E-12,,
,5.444002,4.70E-12,,
,5.446002,2.98E-12,,
,5.448002,1.69E-12,,
,5.450002,6.19E-13,,
,5.452002,7.26E-13,,
,5.454002,1.48E-12,,
,5.456002,2.34E-12,,
,5.458002,2.66E-12,,
,5.460002,1.91E-12,,
,5.462002,4.04E-13,,
,5.464002,-1.31E-12,,
,5.466002,-2.60E-12,,
,5.468002,-2.60E-12,,
,5.470002,-1.85E-12,,
,5.472002,-5.62E-13,,
,5.474002,4.04E-13,,
,5.476002,4.04E-13,,
,5.478002,-3.47E-13,,
,5.480002,-1.96E-12,,
,5.482002,-2.92E-12,,
,5.484002,-3.57E-12,,
,5.486002,-2.82E-12,,
,5.488002,-1.96E-12,,
,5.490002,-7.77E-13,,
,5.492002,-7.77E-13,,
,5.494002,-1.64E-12,,
,5.496002,-3.25E-12,,
,5.498002,-4.53E-12,,
,5.500002,-5.18E-12,,
,5.502002,-4.86E-12,,
,5.504002,-3.89E-12,,
,5.506002,-2.39E-12,,
,5.508002,-1.64E-12,,
,5.510002,-1.85E-12,,
,5.512002,-2.92E-12,,
,5.514002,-4.10E-12,,
,5.516002,-4.75E-12,,
,5.518002,-4.64E-12,,
,5.520002,-3.68E-12,,
,5.522002,-2.07E-12,,
,5.524002,-9.92E-13,,
,5.526002,-6.69E-13,,
,5.528002,-1.85E-12,,
,5.530002,-3.46E-12,,
,5.532002,-4.64E-12,,
,5.534002,-5.07E-12,,
,5.536002,-4.21E-12,,
,5.538002,-3.03E-12,,
,5.540002,-1.64E-12,,
,5.542002,-1.42E-12,,
,5.544002,-2.39E-12,,
,5.546002,-4.10E-12,,
,5.548002,-5.39E-12,,
,5.550002,-5.72E-12,,
,5.552002,-5.07E-12,,
,5.554002,-4.10E-12,,
,5.556002,-3.03E-12,,
,5.558002,-2.60E-12,,
,5.560002,-3.25E-12,,
,5.562002,-4.75E-12,,
,5.564002,-6.04E-12,,
,5.566002,-6.79E-12,,
,5.568002,-6.79E-12,,
,5.570002,-6.25E-12,,
,5.572002,-5.18E-12,,
,5.574002,-4.43E-12,,
,5.576002,-4.64E-12,,
,5.578002,-5.72E-12,,
,5.580002,-6.90E-12,,
,5.582002,-7.86E-12,,
,5.584002,-7.97E-12,,
,5.586002,-7.75E-12,,
,5.588002,-6.57E-12,,
,5.590002,-5.50E-12,,
,5.592002,-4.96E-12,,
,5.594002,-5.82E-12,,
,5.596002,-7.65E-12,,
,5.598002,-9.15E-12,,
,5.600002,-1.00E-11,,
,5.602002,-9.69E-12,,
,5.604002,-8.61E-12,,
,5.606002,-7.33E-12,,
,5.608002,-6.90E-12,,
,5.610002,-7.54E-12,,
,5.612002,-9.04E-12,,
,5.614002,-1.02E-11,,
,5.616002,-1.08E-11,,
,5.618002,-1.04E-11,,
,5.620002,-9.58E-12,,
,5.622002,-8.40E-12,,
,5.624002,-7.54E-12,,
,5.626002,-7.43E-12,,
,5.628002,-8.51E-12,,
,5.630002,-9.90E-12,,
,5.632002,-1.08E-11,,
,5.634002,-1.11E-11,,
,5.636002,-1.04E-11,,
,5.638002,-9.58E-12,,
,5.640002,-8.40E-12,,
,5.642002,-7.97E-12,,
,5.644002,-8.51E-12,,
,5.646002,-9.26E-12,,
,5.648002,-1.00E-11,,
,5.650002,-9.90E-12,,
,5.652002,-9.37E-12,,
,5.654002,-8.08E-12,,
,5.656002,-6.90E-12,,
,5.658002,-6.25E-12,,
,5.660002,-6.68E-12,,
,5.662002,-7.65E-12,,
,5.664002,-8.72E-12,,
,5.666002,-9.26E-12,,
,5.668002,-9.15E-12,,
,5.670002,-8.18E-12,,
,5.672002,-6.68E-12,,
,5.674002,-5.50E-12,,
,5.676002,-5.07E-12,,
,5.678002,-5.82E-12,,
,5.680002,-6.79E-12,,
,5.682002,-7.54E-12,,
,5.684002,-7.43E-12,,
,5.686002,-6.68E-12,,
,5.688002,-5.39E-12,,
,5.690002,-4.10E-12,,
,5.692002,-3.68E-12,,
,5.694002,-4.43E-12,,
,5.696002,-5.93E-12,,
,5.698002,-7.11E-12,,
,5.700002,-7.43E-12,,
,5.702002,-6.90E-12,,
,5.704002,-5.72E-12,,
,5.706002,-4.32E-12,,
,5.708002,-3.25E-12,,
,5.710002,-3.14E-12,,
,5.712002,-4.10E-12,,
,5.714002,-5.29E-12,,
,5.716002,-5.72E-12,,
,5.718002,-5.50E-12,,
,5.720002,-4.64E-12,,
,5.722002,-3.57E-12,,
,5.724002,-2.82E-12,,
,5.726002,-2.92E-12,,
,5.728002,-4.00E-12,,
,5.730002,-5.50E-12,,
,5.732002,-6.57E-12,,
,5.734002,-7.00E-12,,
,5.736002,-5.93E-12,,
,5.738002,-4.43E-12,,
,5.740002,-2.82E-12,,
,5.742002,-2.07E-12,,
,5.744002,-2.49E-12,,
,5.746002,-3.68E-12,,
,5.748002,-4.96E-12,,
,5.750002,-5.29E-12,,
,5.752002,-4.75E-12,,
,5.754002,-3.57E-12,,
,5.756002,-2.39E-12,,
,5.758002,-1.85E-12,,
,5.760002,-2.49E-12,,
,5.762002,-3.89E-12,,
,5.764002,-5.18E-12,,
,5.766002,-5.82E-12,,
,5.768002,-5.50E-12,,
,5.770002,-4.43E-12,,
,5.772002,-2.71E-12,,
,5.774002,-1.42E-12,,
,5.776002,-1.10E-12,,
,5.778002,-1.74E-12,,
,5.780002,-2.82E-12,,
,5.782002,-3.35E-12,,
,5.784002,-3.35E-12,,
,5.786002,-2.28E-12,,
,5.788002,-1.10E-12,,
,5.790002,-1.33E-13,,
,5.792002,-3.47E-13,,
,5.794002,-1.21E-12,,
,5.796002,-2.71E-12,,
,5.798002,-3.89E-12,,
,5.800002,-4.64E-12,,
,5.802002,-4.32E-12,,
,5.804002,-3.14E-12,,
,5.806002,-1.85E-12,,
,5.808002,-9.92E-13,,
,5.810002,-1.31E-12,,
,5.812002,-2.17E-12,,
,5.814002,-3.25E-12,,
,5.816002,-3.78E-12,,
,5.818002,-3.46E-12,,
,5.820002,-2.39E-12,,
,5.822002,-8.84E-13,,
,5.824002,8.20E-14,,
,5.826002,-2.53E-14,,
,5.828002,-1.21E-12,,
,5.830002,-2.92E-12,,
,5.832002,-4.10E-12,,
,5.834002,-4.21E-12,,
,5.836002,-3.25E-12,,
,5.838002,-1.64E-12,,
,5.840002,-2.40E-13,,
,5.842002,5.11E-13,,
,5.844002,2.97E-13,,
,5.846002,-5.62E-13,,
,5.848002,-1.21E-12,,
,5.850002,-1.42E-12,,
,5.852002,-4.55E-13,,
,5.854002,9.41E-13,,
,5.856002,2.77E-12,,
,5.858002,3.84E-12,,
,5.860002,4.05E-12,,
,5.862002,3.09E-12,,
,5.864002,1.91E-12,,
,5.866002,1.16E-12,,
,5.868002,1.59E-12,,
,5.870002,2.87E-12,,
,5.872002,4.70E-12,,
,5.874002,5.77E-12,,
,5.876002,6.09E-12,,
,5.878002,5.24E-12,,
,5.880002,4.16E-12,,
,5.882002,3.41E-12,,
,5.884002,3.62E-12,,
,5.886002,4.70E-12,,
,5.888002,5.99E-12,,
,5.890002,6.95E-12,,
,5.892002,7.27E-12,,
,5.894002,6.52E-12,,
,5.896002,5.24E-12,,
,5.898002,3.95E-12,,
,5.900002,3.62E-12,,
,5.902002,4.16E-12,,
,5.904002,5.45E-12,,
,5.906002,6.85E-12,,
,5.908002,7.92E-12,,
,5.910002,7.81E-12,,
,5.912002,7.17E-12,,
,5.914002,6.09E-12,,
,5.916002,5.77E-12,,
,5.918002,6.09E-12,,
,5.920002,7.17E-12,,
,5.922002,8.56E-12,,
,5.924002,9.42E-12,,
,5.926002,9.42E-12,,
,5.928002,8.46E-12,,
,5.930002,7.06E-12,,
,5.932002,6.09E-12,,
,5.934002,5.99E-12,,
,5.936002,6.95E-12,,
,5.938002,8.46E-12,,
,5.940002,9.96E-12,,
,5.942002,1.07E-11,,
,5.944002,1.03E-11,,
,5.946002,9.42E-12,,
,5.948002,8.46E-12,,
,5.950002,8.24E-12,,
,5.952002,8.67E-12,,
,5.954002,9.96E-12,,
,5.956002,1.15E-11,,
,5.958002,1.22E-11,,
,5.960002,1.20E-11,,
,5.962002,1.07E-11,,
,5.964002,9.42E-12,,
,5.966002,8.46E-12,,
,5.968002,8.67E-12,,
,5.970002,9.42E-12,,
,5.972002,1.06E-11,,
,5.974002,1.12E-11,,
,5.976002,1.11E-11,,
,5.978002,1.01E-11,,
,5.980002,8.56E-12,,
,5.982002,7.27E-12,,
,5.984002,6.74E-12,,
,5.986002,7.06E-12,,
,5.988002,8.03E-12,,
,5.990002,8.78E-12,,
,5.992002,8.89E-12,,
,5.994002,7.60E-12,,
,5.996002,5.56E-12,,
,5.998002,3.73E-12,,
,6.000002,2.77E-12,,
,6.002002,3.09E-12,,
,6.004002,3.95E-12,,
,6.006002,4.81E-12,,
,6.008002,5.13E-12,,
,6.010002,4.27E-12,,
,6.012002,2.98E-12,,
,6.014002,1.26E-12,,
,6.016002,2.97E-13,,
,6.018002,-2.53E-14,,
,6.020002,5.11E-13,,
,6.022002,1.48E-12,,
,6.024002,2.23E-12,,
,6.026002,1.80E-12,,
,6.028002,4.04E-13,,
,6.030002,-1.42E-12,,
,6.032002,-2.49E-12,,
,6.034002,-2.92E-12,,
,6.036002,-2.49E-12,,
,6.038002,-1.74E-12,,
,6.040002,-6.69E-13,,
,6.042002,-2.40E-13,,
,6.044002,-7.77E-13,,
,6.046002,-2.17E-12,,
,6.048002,-3.46E-12,,
,6.050002,-4.00E-12,,
,6.052002,-3.68E-12,,
,6.054002,-2.92E-12,,
,6.056002,-1.96E-12,,
,6.058002,-1.74E-12,,
,6.060002,-2.39E-12,,
,6.062002,-4.21E-12,,
,6.064002,-5.93E-12,,
,6.066002,-7.22E-12,,
,6.068002,-7.22E-12,,
,6.070002,-6.68E-12,,
,6.072002,-5.39E-12,,
,6.074002,-4.53E-12,,
,6.076002,-4.53E-12,,
,6.078002,-5.72E-12,,
,6.080002,-7.33E-12,,
,6.082002,-8.61E-12,,
,6.084002,-8.94E-12,,
,6.086002,-8.29E-12,,
,6.088002,-6.79E-12,,
,6.090002,-5.61E-12,,
,6.092002,-5.29E-12,,
,6.094002,-6.25E-12,,
,6.096002,-7.86E-12,,
,6.098002,-9.37E-12,,
,6.100002,-1.01E-11,,
,6.102002,-9.79E-12,,
,6.104002,-8.72E-12,,
,6.106002,-7.43E-12,,
,6.108002,-6.57E-12,,
,6.110002,-6.79E-12,,
,6.112002,-7.65E-12,,
,6.114002,-8.61E-12,,
,6.116002,-8.94E-12,,
,6.118002,-8.72E-12,,
,6.120002,-7.75E-12,,
,6.122002,-6.47E-12,,
,6.124002,-5.50E-12,,
,6.126002,-5.61E-12,,
,6.128002,-6.57E-12,,
,6.130002,-7.97E-12,,
,6.132002,-8.94E-12,,
,6.134002,-9.26E-12,,
,6.136002,-8.61E-12,,
,6.138002,-7.54E-12,,
,6.140002,-6.47E-12,,
,6.142002,-6.04E-12,,
,6.144002,-6.68E-12,,
,6.146002,-7.86E-12,,
,6.148002,-9.15E-12,,
,6.150002,-9.37E-12,,
,6.152002,-9.04E-12,,
,6.154002,-7.86E-12,,
,6.156002,-6.90E-12,,
,6.158002,-6.36E-12,,
,6.160002,-6.79E-12,,
,6.162002,-7.97E-12,,
,6.164002,-9.26E-12,,
,6.166002,-1.00E-11,,
,6.168002,-1.01E-11,,
,6.170002,-9.47E-12,,
,6.172002,-8.61E-12,,
,6.174002,-7.97E-12,,
,6.176002,-8.08E-12,,
,6.178002,-9.15E-12,,
,6.180002,-1.04E-11,,
,6.182002,-1.14E-11,,
,6.184002,-1.15E-11,,
,6.186002,-1.10E-11,,
,6.188002,-1.00E-11,,
,6.190002,-9.26E-12,,
,6.192002,-9.04E-12,,
,6.194002,-9.90E-12,,
,6.196002,-1.12E-11,,
,6.198002,-1.25E-11,,
,6.200002,-1.29E-11,,
,6.202002,-1.25E-11,,
,6.204002,-1.16E-11,,
,6.206002,-1.04E-11,,
,6.208002,-9.79E-12,,
,6.210002,-1.00E-11,,
,6.212002,-1.09E-11,,
,6.214002,-1.19E-11,,
,6.216002,-1.22E-11,,
,6.218002,-1.19E-11,,
,6.220002,-1.08E-11,,
,6.222002,-9.37E-12,,
,6.224002,-8.08E-12,,
,6.226002,-7.86E-12,,
,6.228002,-8.72E-12,,
,6.230002,-1.01E-11,,
,6.232002,-1.12E-11,,
,6.234002,-1.13E-11,,
,6.236002,-1.04E-11,,
,6.238002,-8.94E-12,,
,6.240002,-7.54E-12,,
,6.242002,-6.79E-12,,
,6.244002,-7.22E-12,,
,6.246002,-8.08E-12,,
,6.248002,-8.83E-12,,
,6.250002,-8.61E-12,,
,6.252002,-7.54E-12,,
,6.254002,-5.93E-12,,
,6.256002,-4.32E-12,,
,6.258002,-3.25E-12,,
,6.260002,-3.14E-12,,
,6.262002,-3.89E-12,,
,6.264002,-4.86E-12,,
,6.266002,-5.50E-12,,
,6.268002,-4.96E-12,,
,6.270002,-3.68E-12,,
,6.272002,-1.74E-12,,
,6.274002,-4.55E-13,,
,6.276002,-1.33E-13,,
,6.278002,-7.77E-13,,
,6.280002,-1.74E-12,,
,6.282002,-2.28E-12,,
,6.284002,-1.96E-12,,
,6.286002,-7.77E-13,,
,6.288002,6.19E-13,,
,6.290002,1.91E-12,,
,6.292002,2.23E-12,,
,6.294002,1.80E-12,,
,6.296002,6.19E-13,,
,6.298002,-3.47E-13,,
,6.300002,-6.69E-13,,
,6.302002,-2.40E-13,,
,6.304002,1.05E-12,,
,6.306002,2.44E-12,,
,6.308002,3.41E-12,,
,6.310002,3.41E-12,,
,6.312002,2.55E-12,,
,6.314002,1.37E-12,,
,6.316002,7.26E-13,,
,6.318002,9.41E-13,,
,6.320002,2.12E-12,,
,6.322002,3.62E-12,,
,6.324002,4.81E-12,,
,6.326002,4.59E-12,,
,6.328002,3.09E-12,,
,6.330002,1.26E-12,,
,6.332002,8.20E-14,,
,6.334002,1.89E-13,,
,6.336002,8.34E-13,,
,6.338002,2.23E-12,,
,6.340002,3.09E-12,,
,6.342002,3.30E-12,,
,6.344002,2.44E-12,,
,6.346002,1.05E-12,,
,6.348002,-2.53E-14,,
,6.350002,-6.69E-13,,
,6.352002,-2.40E-13,,
,6.354002,5.11E-13,,
,6.356002,1.37E-12,,
,6.358002,1.59E-12,,
,6.360002,8.34E-13,,
,6.362002,-7.77E-13,,
,6.364002,-2.71E-12,,
,6.366002,-4.21E-12,,
,6.368002,-4.64E-12,,
,6.370002,-4.10E-12,,
,6.372002,-3.03E-12,,
,6.374002,-2.39E-12,,
,6.376002,-2.82E-12,,
,6.378002,-4.10E-12,,
,6.380002,-5.93E-12,,
,6.382002,-7.33E-12,,
,6.384002,-8.08E-12,,
,6.386002,-7.75E-12,,
,6.388002,-7.00E-12,,
,6.390002,-6.25E-12,,
,6.392002,-6.47E-12,,
,6.394002,-7.75E-12,,
,6.396002,-9.79E-12,,
,6.398002,-1.17E-11,,
,6.400002,-1.29E-11,,
,6.402002,-1.29E-11,,
,6.404002,-1.24E-11,,
,6.406002,-1.17E-11,,
,6.408002,-1.15E-11,,
,6.410002,-1.22E-11,,
,6.412002,-1.37E-11,,
,6.414002,-1.54E-11,,
,6.416002,-1.65E-11,,
,6.418002,-1.65E-11,,
,6.420002,-1.61E-11,,
,6.422002,-1.54E-11,,
,6.424002,-1.51E-11,,
,6.426002,-1.57E-11,,
,6.428002,-1.74E-11,,
,6.430002,-1.95E-11,,
,6.432002,-2.10E-11,,
,6.434002,-2.18E-11,,
,6.436002,-2.17E-11,,
,6.438002,-2.10E-11,,
,6.440002,-2.00E-11,,
,6.442002,-1.99E-11,,
,6.444002,-2.07E-11,,
,6.446002,-2.22E-11,,
,6.448002,-2.35E-11,,
,6.450002,-2.43E-11,,
,6.452002,-2.40E-11,,
,6.454002,-2.32E-11,,
,6.456002,-2.22E-11,,
,6.458002,-2.21E-11,,
,6.460002,-2.30E-11,,
,6.462002,-2.46E-11,,
,6.464002,-2.63E-11,,
,6.466002,-2.76E-11,,
,6.468002,-2.78E-11,,
,6.470002,-2.71E-11,,
,6.472002,-2.58E-11,,
,6.474002,-2.49E-11,,
,6.476002,-2.51E-11,,
,6.478002,-2.62E-11,,
,6.480002,-2.77E-11,,
,6.482002,-2.86E-11,,
,6.484002,-2.88E-11,,
,6.486002,-2.79E-11,,
,6.488002,-2.66E-11,,
,6.490002,-2.54E-11,,
,6.492002,-2.50E-11,,
,6.494002,-2.59E-11,,
,6.496002,-2.72E-11,,
,6.498002,-2.85E-11,,
,6.500002,-2.87E-11,,
,6.502002,-2.86E-11,,
,6.504002,-2.71E-11,,
,6.506002,-2.57E-11,,
,6.508002,-2.44E-11,,
,6.510002,-2.44E-11,,
,6.512002,-2.51E-11,,
,6.514002,-2.59E-11,,
,6.516002,-2.61E-11,,
,6.518002,-2.56E-11,,
,6.520002,-2.43E-11,,
,6.522002,-2.27E-11,,
,6.524002,-2.13E-11,,
,6.526002,-2.06E-11,,
,6.528002,-2.13E-11,,
,6.530002,-2.26E-11,,
,6.532002,-2.35E-11,,
,6.534002,-2.34E-11,,
,6.536002,-2.21E-11,,
,6.538002,-2.03E-11,,
,6.540002,-1.84E-11,,
,6.542002,-1.71E-11,,
,6.544002,-1.70E-11,,
,6.546002,-1.75E-11,,
,6.548002,-1.77E-11,,
,6.550002,-1.73E-11,,
,6.552002,-1.61E-11,,
,6.554002,-1.45E-11,,
,6.556002,-1.28E-11,,
,6.558002,-1.18E-11,,
,6.560002,-1.18E-11,,
,6.562002,-1.29E-11,,
,6.564002,-1.42E-11,,
,6.566002,-1.49E-11,,
,6.568002,-1.45E-11,,
,6.570002,-1.29E-11,,
,6.572002,-1.11E-11,,
,6.574002,-9.47E-12,,
,6.576002,-8.83E-12,,
,6.578002,-8.94E-12,,
,6.580002,-9.58E-12,,
,6.582002,-9.79E-12,,
,6.584002,-9.37E-12,,
,6.586002,-7.86E-12,,
,6.588002,-6.04E-12,,
,6.590002,-4.21E-12,,
,6.592002,-3.46E-12,,
,6.594002,-3.78E-12,,
,6.596002,-5.18E-12,,
,6.598002,-6.14E-12,,
,6.600002,-6.57E-12,,
,6.602002,-5.93E-12,,
,6.604002,-4.53E-12,,
,6.606002,-2.92E-12,,
,6.608002,-1.74E-12,,
,6.610002,-1.85E-12,,
,6.612002,-2.82E-12,,
,6.614002,-4.10E-12,,
,6.616002,-4.86E-12,,
,6.618002,-4.53E-12,,
,6.620002,-3.46E-12,,
,6.622002,-2.07E-12,,
,6.624002,-1.31E-12,,
,6.626002,-1.42E-12,,
,6.628002,-2.92E-12,,
,6.630002,-4.64E-12,,
,6.632002,-6.04E-12,,
,6.634002,-6.14E-12,,
,6.636002,-5.39E-12,,
,6.638002,-4.21E-12,,
,6.640002,-3.03E-12,,
,6.642002,-2.71E-12,,
,6.644002,-3.25E-12,,
,6.646002,-4.32E-12,,
,6.648002,-5.18E-12,,
,6.650002,-5.50E-12,,
,6.652002,-4.96E-12,,
,6.654002,-3.89E-12,,
,6.656002,-2.49E-12,,
,6.658002,-1.96E-12,,
,6.660002,-2.60E-12,,
,6.662002,-4.32E-12,,
,6.664002,-5.93E-12,,
,6.666002,-6.90E-12,,
,6.668002,-6.90E-12,,
,6.670002,-6.14E-12,,
,6.672002,-5.07E-12,,
,6.674002,-4.10E-12,,
,6.676002,-4.10E-12,,
,6.678002,-4.75E-12,,
,6.680002,-5.93E-12,,
,6.682002,-6.79E-12,,
,6.684002,-7.11E-12,,
,6.686002,-6.47E-12,,
,6.688002,-5.50E-12,,
,6.690002,-4.53E-12,,
,6.692002,-4.32E-12,,
,6.694002,-5.07E-12,,
,6.696002,-6.47E-12,,
,6.698002,-8.08E-12,,
,6.700002,-8.83E-12,,
,6.702002,-8.72E-12,,
,6.704002,-7.75E-12,,
,6.706002,-6.47E-12,,
,6.708002,-5.72E-12,,
,6.710002,-5.82E-12,,
,6.712002,-6.90E-12,,
,6.714002,-8.18E-12,,
,6.716002,-8.83E-12,,
,6.718002,-8.72E-12,,
,6.720002,-7.65E-12,,
,6.722002,-6.36E-12,,
,6.724002,-5.50E-12,,
,6.726002,-5.72E-12,,
,6.728002,-6.79E-12,,
,6.730002,-8.51E-12,,
,6.732002,-9.58E-12,,
,6.734002,-1.01E-11,,
,6.736002,-9.69E-12,,
,6.738002,-8.61E-12,,
,6.740002,-7.65E-12,,
,6.742002,-7.11E-12,,
,6.744002,-7.75E-12,,
,6.746002,-9.04E-12,,
,6.748002,-1.01E-11,,
,6.750002,-1.07E-11,,
,6.752002,-1.01E-11,,
,6.754002,-8.94E-12,,
,6.756002,-7.65E-12,,
,6.758002,-6.90E-12,,
,6.760002,-7.33E-12,,
,6.762002,-8.51E-12,,
,6.764002,-1.00E-11,,
,6.766002,-1.10E-11,,
,6.768002,-1.09E-11,,
,6.770002,-9.79E-12,,
,6.772002,-8.29E-12,,
,6.774002,-7.00E-12,,
,6.776002,-7.11E-12,,
,6.778002,-8.18E-12,,
,6.780002,-9.79E-12,,
,6.782002,-1.04E-11,,
,6.784002,-1.02E-11,,
,6.786002,-9.15E-12,,
,6.788002,-7.86E-12,,
,6.790002,-6.68E-12,,
,6.792002,-6.47E-12,,
,6.794002,-7.22E-12,,
,6.796002,-8.72E-12,,
,6.798002,-1.01E-11,,
,6.800002,-1.07E-11,,
,6.802002,-1.05E-11,,
,6.804002,-9.58E-12,,
,6.806002,-8.51E-12,,
,6.808002,-7.86E-12,,
,6.810002,-8.29E-12,,
,6.812002,-9.79E-12,,
,6.814002,-1.11E-11,,
,6.816002,-1.19E-11,,
,6.818002,-1.16E-11,,
,6.820002,-1.10E-11,,
,6.822002,-9.47E-12,,
,6.824002,-8.51E-12,,
,6.826002,-8.40E-12,,
,6.828002,-9.69E-12,,
,6.830002,-1.14E-11,,
,6.832002,-1.29E-11,,
,6.834002,-1.33E-11,,
,6.836002,-1.27E-11,,
,6.838002,-1.11E-11,,
,6.840002,-1.00E-11,,
,6.842002,-9.90E-12,,
,6.844002,-1.09E-11,,
,6.846002,-1.23E-11,,
,6.848002,-1.36E-11,,
,6.850002,-1.40E-11,,
,6.852002,-1.36E-11,,
,6.854002,-1.23E-11,,
,6.856002,-1.09E-11,,
,6.858002,-1.02E-11,,
,6.860002,-1.08E-11,,
,6.862002,-1.25E-11,,
,6.864002,-1.43E-11,,
,6.866002,-1.56E-11,,
,6.868002,-1.58E-11,,
,6.870002,-1.52E-11,,
,6.872002,-1.41E-11,,
,6.874002,-1.33E-11,,
,6.876002,-1.34E-11,,
,6.878002,-1.47E-11,,
,6.880002,-1.67E-11,,
,6.882002,-1.83E-11,,
,6.884002,-1.88E-11,,
,6.886002,-1.84E-11,,
,6.888002,-1.75E-11,,
,6.890002,-1.69E-11,,
,6.892002,-1.74E-11,,
,6.894002,-1.89E-11,,
,6.896002,-2.14E-11,,
,6.898002,-2.35E-11,,
,6.900002,-2.50E-11,,
,6.902002,-2.55E-11,,
,6.904002,-2.50E-11,,
,6.906002,-2.44E-11,,
,6.908002,-2.41E-11,,
,6.910002,-2.49E-11,,
,6.912002,-2.69E-11,,
,6.914002,-2.88E-11,,
,6.916002,-2.99E-11,,
,6.918002,-2.97E-11,,
,6.920002,-2.89E-11,,
,6.922002,-2.79E-11,,
,6.924002,-2.74E-11,,
,6.926002,-2.79E-11,,
,6.928002,-2.95E-11,,
,6.930002,-3.16E-11,,
,6.932002,-3.33E-11,,
,6.934002,-3.41E-11,,
,6.936002,-3.41E-11,,
,6.938002,-3.33E-11,,
,6.940002,-3.24E-11,,
,6.942002,-3.23E-11,,
,6.944002,-3.33E-11,,
,6.946002,-3.53E-11,,
,6.948002,-3.73E-11,,
,6.950002,-3.84E-11,,
,6.952002,-3.84E-11,,
,6.954002,-3.75E-11,,
,6.956002,-3.70E-11,,
,6.958002,-3.73E-11,,
,6.960002,-3.91E-11,,
,6.962002,-4.17E-11,,
,6.964002,-4.46E-11,,
,6.966002,-4.68E-11,,
,6.968002,-4.83E-11,,
,6.970002,-4.86E-11,,
,6.972002,-4.84E-11,,
,6.974002,-4.87E-11,,
,6.976002,-5.02E-11,,
,6.978002,-5.24E-11,,
,6.980002,-5.50E-11,,
,6.982002,-5.71E-11,,
,6.984002,-5.85E-11,,
,6.986002,-5.90E-11,,
,6.988002,-5.86E-11,,
,6.990002,-5.85E-11,,
,6.992002,-5.92E-11,,
,6.994002,-6.10E-11,,
,6.996002,-6.34E-11,,
,6.998002,-6.54E-11,,
,7.000002,-6.67E-11,,
,7.002002,-6.72E-11,,
,7.004002,-6.70E-11,,
,7.006002,-6.64E-11,,
,7.008002,-6.59E-11,,
,7.010002,-6.66E-11,,
,7.012002,-6.82E-11,,
,7.014002,-6.97E-11,,
,7.016002,-7.08E-11,,
,7.018002,-7.05E-11,,
,7.020002,-6.94E-11,,
,7.022002,-6.77E-11,,
,7.024002,-6.66E-11,,
,7.026002,-6.62E-11,,
,7.028002,-6.69E-11,,
,7.030002,-6.78E-11,,
,7.032002,-6.85E-11,,
,7.034002,-6.80E-11,,
,7.036002,-6.68E-11,,
,7.038002,-6.48E-11,,
,7.040002,-6.28E-11,,
,7.042002,-6.13E-11,,
,7.044002,-6.10E-11,,
,7.046002,-6.13E-11,,
,7.048002,-6.16E-11,,
,7.050002,-6.13E-11,,
,7.052002,-5.97E-11,,
,7.054002,-5.75E-11,,
,7.056002,-5.49E-11,,
,7.058002,-5.34E-11,,
,7.060002,-5.28E-11,,
,7.062002,-5.33E-11,,
,7.064002,-5.39E-11,,
,7.066002,-5.37E-11,,
,7.068002,-5.27E-11,,
,7.070002,-5.08E-11,,
,7.072002,-4.87E-11,,
,7.074002,-4.68E-11,,
,7.076002,-4.59E-11,,
,7.078002,-4.58E-11,,
,7.080002,-4.60E-11,,
,7.082002,-4.57E-11,,
,7.084002,-4.46E-11,,
,7.086002,-4.26E-11,,
,7.088002,-4.02E-11,,
,7.090002,-3.78E-11,,
,7.092002,-3.63E-11,,
,7.094002,-3.60E-11,,
,7.096002,-3.65E-11,,
,7.098002,-3.70E-11,,
,7.100002,-3.65E-11,,
,7.102002,-3.50E-11,,
,7.104002,-3.27E-11,,
,7.106002,-3.02E-11,,
,7.108002,-2.83E-11,,
,7.110002,-2.74E-11,,
,7.112002,-2.74E-11,,
,7.114002,-2.75E-11,,
,7.116002,-2.69E-11,,
,7.118002,-2.51E-11,,
,7.120002,-2.26E-11,,
,7.122002,-1.97E-11,,
,7.124002,-1.73E-11,,
,7.126002,-1.60E-11,,
,7.128002,-1.59E-11,,
,7.130002,-1.61E-11,,
,7.132002,-1.61E-11,,
,7.134002,-1.49E-11,,
,7.136002,-1.26E-11,,
,7.138002,-9.58E-12,,
,7.140002,-6.47E-12,,
,7.142002,-4.75E-12,,
,7.144002,-3.78E-12,,
,7.146002,-3.57E-12,,
,7.148002,-2.71E-12,,
,7.150002,-1.21E-12,,
,7.152002,9.41E-13,,
,7.154002,3.84E-12,,
,7.156002,6.63E-12,,
,7.158002,9.10E-12,,
,7.160002,1.03E-11,,
,7.162002,1.08E-11,,
,7.164002,1.10E-11,,
,7.166002,1.21E-11,,
,7.168002,1.44E-11,,
,7.170002,1.76E-11,,
,7.172002,2.12E-11,,
,7.174002,2.45E-11,,
,7.176002,2.66E-11,,
,7.178002,2.77E-11,,
,7.180002,2.85E-11,,
,7.182002,2.99E-11,,
,7.184002,3.22E-11,,
,7.186002,3.51E-11,,
,7.188002,3.85E-11,,
,7.190002,4.15E-11,,
,7.192002,4.39E-11,,
,7.194002,4.48E-11,,
,7.196002,4.54E-11,,
,7.198002,4.59E-11,,
,7.200002,4.74E-11,,
,7.202002,4.98E-11,,
,7.204002,5.28E-11,,
,7.206002,5.61E-11,,
,7.208002,5.88E-11,,
,7.210002,6.06E-11,,
,7.212002,6.14E-11,,
,7.214002,6.20E-11,,
,7.216002,6.32E-11,,
,7.218002,6.52E-11,,
,7.220002,6.83E-11,,
,7.222002,7.16E-11,,
,7.224002,7.48E-11,,
,7.226002,7.69E-11,,
,7.228002,7.80E-11,,
,7.230002,7.87E-11,,
,7.232002,7.98E-11,,
,7.234002,8.22E-11,,
,7.236002,8.56E-11,,
,7.238002,8.97E-11,,
,7.240002,9.37E-11,,
,7.242002,9.70E-11,,
,7.244002,9.94E-11,,
,7.246002,1.01E-10,,
,7.248002,1.02E-10,,
,7.250002,1.05E-10,,
,7.252002,1.09E-10,,
,7.254002,1.13E-10,,
,7.256002,1.18E-10,,
,7.258002,1.22E-10,,
,7.260002,1.25E-10,,
,7.262002,1.28E-10,,
,7.264002,1.30E-10,,
,7.266002,1.33E-10,,
,7.268002,1.37E-10,,
,7.270002,1.42E-10,,
,7.272002,1.47E-10,,
,7.274002,1.52E-10,,
,7.276002,1.56E-10,,
,7.278002,1.59E-10,,
,7.280002,1.62E-10,,
,7.282002,1.65E-10,,
,7.284002,1.69E-10,,
,7.286002,1.74E-10,,
,7.288002,1.79E-10,,
,7.290002,1.85E-10,,
,7.292002,1.89E-10,,
,7.294002,1.93E-10,,
,7.296002,1.96E-10,,
,7.298002,1.99E-10,,
,7.300002,2.03E-10,,
,7.302002,2.08E-10,,
,7.304002,2.13E-10,,
,7.306002,2.18E-10,,
,7.308002,2.23E-10,,
,7.310002,2.27E-10,,
,7.312002,2.30E-10,,
,7.314002,2.32E-10,,
,7.316002,2.36E-10,,
,7.318002,2.40E-10,,
,7.320002,2.45E-10,,
,7.322002,2.50E-10,,
,7.324002,2.55E-10,,
,7.326002,2.59E-10,,
,7.328002,2.62E-10,,
,7.330002,2.64E-10,,
,7.332002,2.66E-10,,
,7.334002,2.70E-10,,
,7.336002,2.74E-10,,
,7.338002,2.78E-10,,
,7.340002,2.82E-10,,
,7.342002,2.86E-10,,
,7.344002,2.88E-10,,
,7.346002,2.90E-10,,
,7.348002,2.92E-10,,
,7.350002,2.94E-10,,
,7.352002,2.97E-10,,
,7.354002,3.01E-10,,
,7.356002,3.06E-10,,
,7.358002,3.09E-10,,
,7.360002,3.11E-10,,
,7.362002,3.12E-10,,
,7.364002,3.13E-10,,
,7.366002,3.14E-10,,
,7.368002,3.17E-10,,
,7.370002,3.20E-10,,
,7.372002,3.23E-10,,
,7.374002,3.26E-10,,
,7.376002,3.27E-10,,
,7.378002,3.29E-10,,
,7.380002,3.29E-10,,
,7.382002,3.31E-10,,
,7.384002,3.33E-10,,
,7.386002,3.36E-10,,
,7.388002,3.39E-10,,
,7.390002,3.42E-10,,
,7.392002,3.44E-10,,
,7.394002,3.45E-10,,
,7.396002,3.45E-10,,
,7.398002,3.45E-10,,
,7.400002,3.46E-10,,
,7.402002,3.48E-10,,
,7.404002,3.50E-10,,
,7.406002,3.53E-10,,
,7.408002,3.55E-10,,
,7.410002,3.57E-10,,
,7.412002,3.57E-10,,
,7.414002,3.57E-10,,
,7.416002,3.58E-10,,
,7.418002,3.60E-10,,
,7.420002,3.62E-10,,
,7.422002,3.65E-10,,
,7.424002,3.68E-10,,
,7.426002,3.69E-10,,
,7.428002,3.69E-10,,
,7.430002,3.68E-10,,
,7.432002,3.68E-10,,
,7.434002,3.69E-10,,
,7.436002,3.71E-10,,
,7.438002,3.73E-10,,
,7.440002,3.75E-10,,
,7.442002,3.76E-10,,
,7.444002,3.76E-10,,
,7.446002,3.76E-10,,
,7.448002,3.75E-10,,
,7.450002,3.76E-10,,
,7.452002,3.77E-10,,
,7.454002,3.78E-10,,
,7.456002,3.80E-10,,
,7.458002,3.81E-10,,
,7.460002,3.80E-10,,
,7.462002,3.79E-10,,
,7.464002,3.77E-10,,
,7.466002,3.76E-10,,
,7.468002,3.76E-10,,
,7.470002,3.77E-10,,
,7.472002,3.78E-10,,
,7.474002,3.78E-10,,
,7.476002,3.78E-10,,
,7.478002,3.77E-10,,
,7.480002,3.75E-10,,
,7.482002,3.73E-10,,
,7.484002,3.73E-10,,
,7.486002,3.73E-10,,
,7.488002,3.73E-10,,
,7.490002,3.73E-10,,
,7.492002,3.72E-10,,
,7.494002,3.70E-10,,
,7.496002,3.68E-10,,
,7.498002,3.65E-10,,
,7.500002,3.63E-10,,
,7.502002,3.63E-10,,
,7.504002,3.63E-10,,
,7.506002,3.63E-10,,
,7.508002,3.63E-10,,
,7.510002,3.62E-10,,
,7.512002,3.60E-10,,
,7.514002,3.58E-10,,
,7.516002,3.56E-10,,
,7.518002,3.55E-10,,
,7.520002,3.55E-10,,
,7.522002,3.55E-10,,
,7.524002,3.54E-10,,
,7.526002,3.53E-10,,
,7.528002,3.50E-10,,
,7.530002,3.47E-10,,
,7.532002,3.45E-10,,
,7.534002,3.42E-10,,
,7.536002,3.41E-10,,
,7.538002,3.41E-10,,
,7.540002,3.40E-10,,
,7.542002,3.38E-10,,
,7.544002,3.35E-10,,
,7.546002,3.32E-10,,
,7.548002,3.29E-10,,
,7.550002,3.27E-10,,
,7.552002,3.25E-10,,
,7.554002,3.25E-10,,
,7.556002,3.24E-10,,
,7.558002,3.22E-10,,
,7.560002,3.19E-10,,
,7.562002,3.15E-10,,
,7.564002,3.11E-10,,
,7.566002,3.08E-10,,
,7.568002,3.06E-10,,
,7.570002,3.04E-10,,
,7.572002,3.02E-10,,
,7.574002,3.00E-10,,
,7.576002,2.98E-10,,
,7.578002,2.94E-10,,
,7.580002,2.89E-10,,
,7.582002,2.85E-10,,
,7.584002,2.82E-10,,
,7.586002,2.79E-10,,
,7.588002,2.78E-10,,
,7.590002,2.75E-10,,
,7.592002,2.72E-10,,
,7.594002,2.68E-10,,
,7.596002,2.64E-10,,
,7.598002,2.59E-10,,
,7.600002,2.55E-10,,
,7.602002,2.52E-10,,
,7.604002,2.50E-10,,
,7.606002,2.48E-10,,
,7.608002,2.45E-10,,
,7.610002,2.41E-10,,
,7.612002,2.36E-10,,
,7.614002,2.32E-10,,
,7.616002,2.28E-10,,
,7.618002,2.24E-10,,
,7.620002,2.21E-10,,
,7.622002,2.19E-10,,
,7.624002,2.17E-10,,
,7.626002,2.13E-10,,
,7.628002,2.08E-10,,
,7.630002,2.04E-10,,
,7.632002,1.99E-10,,
,7.634002,1.95E-10,,
,7.636002,1.92E-10,,
,7.638002,1.90E-10,,
,7.640002,1.87E-10,,
,7.642002,1.84E-10,,
,7.644002,1.79E-10,,
,7.646002,1.75E-10,,
,7.648002,1.70E-10,,
,7.650002,1.66E-10,,
,7.652002,1.63E-10,,
,7.654002,1.60E-10,,
,7.656002,1.59E-10,,
,7.658002,1.56E-10,,
,7.660002,1.53E-10,,
,7.662002,1.48E-10,,
,7.664002,1.43E-10,,
,7.666002,1.39E-10,,
,7.668002,1.36E-10,,
,7.670002,1.34E-10,,
,7.672002,1.32E-10,,
,7.674002,1.30E-10,,
,7.676002,1.27E-10,,
,7.678002,1.23E-10,,
,7.680002,1.18E-10,,
,7.682002,1.15E-10,,
,7.684002,1.12E-10,,
,7.686002,1.10E-10,,
,7.688002,1.08E-10,,
,7.690002,1.07E-10,,
,7.692002,1.04E-10,,
,7.694002,1.01E-10,,
,7.696002,9.75E-11,,
,7.698002,9.38E-11,,
,7.700002,9.08E-11,,
,7.702002,8.88E-11,,
,7.704002,8.74E-11,,
,7.706002,8.64E-11,,
,7.708002,8.49E-11,,
,7.710002,8.26E-11,,
,7.712002,7.93E-11,,
,7.714002,7.60E-11,,
,7.716002,7.34E-11,,
,7.718002,7.19E-11,,
,7.720002,7.13E-11,,
,7.722002,7.10E-11,,
,7.724002,7.04E-11,,
,7.726002,6.87E-11,,
,7.728002,6.59E-11,,
,7.730002,6.30E-11,,
,7.732002,6.07E-11,,
,7.734002,5.92E-11,,
,7.736002,5.84E-11,,
,7.738002,5.81E-11,,
,7.740002,5.79E-11,,
,7.742002,5.70E-11,,
,7.744002,5.53E-11,,
,7.746002,5.26E-11,,
,7.748002,5.04E-11,,
,7.750002,4.88E-11,,
,7.752002,4.84E-11,,
,7.754002,4.87E-11,,
,7.756002,4.93E-11,,
,7.758002,4.91E-11,,
,7.760002,4.80E-11,,
,7.762002,4.57E-11,,
,7.764002,4.37E-11,,
,7.766002,4.22E-11,,
,7.768002,4.17E-11,,
,7.770002,4.20E-11,,
,7.772002,4.27E-11,,
,7.774002,4.32E-11,,
,7.776002,4.28E-11,,
,7.778002,4.13E-11,,
,7.780002,3.96E-11,,
,7.782002,3.82E-11,,
,7.784002,3.78E-11,,
,7.786002,3.81E-11,,
,7.788002,3.89E-11,,
,7.790002,3.98E-11,,
,7.792002,3.99E-11,,
,7.794002,3.92E-11,,
,7.796002,3.72E-11,,
,7.798002,3.54E-11,,
,7.800002,3.44E-11,,
,7.802002,3.47E-11,,
,7.804002,3.56E-11,,
,7.806002,3.68E-11,,
,7.808002,3.74E-11,,
,7.810002,3.72E-11,,
,7.812002,3.62E-11,,
,7.814002,3.50E-11,,
,7.816002,3.45E-11,,
,7.818002,3.48E-11,,
,7.820002,3.59E-11,,
,7.822002,3.70E-11,,
,7.824002,3.79E-11,,
,7.826002,3.78E-11,,
,7.828002,3.68E-11,,
,7.830002,3.56E-11,,
,7.832002,3.50E-11,,
,7.834002,3.51E-11,,
,7.836002,3.60E-11,,
,7.838002,3.75E-11,,
,7.840002,3.92E-11,,
,7.842002,3.98E-11,,
,7.844002,3.97E-11,,
,7.846002,3.91E-11,,
,7.848002,3.89E-11,,
,7.850002,3.93E-11,,
,7.852002,4.08E-11,,
,7.854002,4.27E-11,,
,7.856002,4.52E-11,,
,7.858002,4.67E-11,,
,7.860002,4.74E-11,,
,7.862002,4.71E-11,,
,7.864002,4.71E-11,,
,7.866002,4.76E-11,,
,7.868002,4.93E-11,,
,7.870002,5.14E-11,,
,7.872002,5.43E-11,,
,7.874002,5.67E-11,,
,7.876002,5.83E-11,,
,7.878002,5.87E-11,,
,7.880002,5.89E-11,,
,7.882002,5.97E-11,,
,7.884002,6.12E-11,,
,7.886002,6.35E-11,,
,7.888002,6.63E-11,,
,7.890002,6.91E-11,,
,7.892002,7.13E-11,,
,7.894002,7.24E-11,,
,7.896002,7.29E-11,,
,7.898002,7.35E-11,,
,7.900002,7.49E-11,,
,7.902002,7.73E-11,,
,7.904002,8.04E-11,,
,7.906002,8.36E-11,,
,7.908002,8.63E-11,,
,7.910002,8.78E-11,,
,7.912002,8.83E-11,,
,7.914002,8.91E-11,,
,7.916002,9.04E-11,,
,7.918002,9.27E-11,,
,7.920002,9.58E-11,,
,7.922002,9.94E-11,,
,7.924002,1.02E-10,,
,7.926002,1.05E-10,,
,7.928002,1.06E-10,,
,7.930002,1.07E-10,,
,7.932002,1.08E-10,,
,7.934002,1.11E-10,,
,7.936002,1.14E-10,,
,7.938002,1.18E-10,,
,7.940002,1.21E-10,,
,7.942002,1.24E-10,,
,7.944002,1.26E-10,,
,7.946002,1.27E-10,,
,7.948002,1.28E-10,,
,7.950002,1.30E-10,,
,7.952002,1.33E-10,,
,7.954002,1.37E-10,,
,7.956002,1.40E-10,,
,7.958002,1.43E-10,,
,7.960002,1.45E-10,,
,7.962002,1.47E-10,,
,7.964002,1.48E-10,,
,7.966002,1.50E-10,,
,7.968002,1.53E-10,,
,7.970002,1.56E-10,,
,7.972002,1.60E-10,,
,7.974002,1.64E-10,,
,7.976002,1.67E-10,,
,7.978002,1.68E-10,,
,7.980002,1.69E-10,,
,7.982002,1.71E-10,,
,7.984002,1.73E-10,,
,7.986002,1.76E-10,,
,7.988002,1.80E-10,,
,7.990002,1.83E-10,,
,7.992002,1.86E-10,,
,7.994002,1.88E-10,,
,7.996002,1.89E-10,,
,7.998002,1.89E-10,,
,8.000002,1.91E-10,,
,8.002002,1.93E-10,,
,8.004002,1.96E-10,,
,8.006002,1.99E-10,,
,8.008002,2.01E-10,,
,8.010002,2.03E-10,,
,8.012002,2.03E-10,,
,8.014002,2.03E-10,,
,8.016002,2.04E-10,,
,8.018002,2.05E-10,,
,8.020002,2.08E-10,,
,8.022002,2.11E-10,,
,8.024002,2.14E-10,,
,8.026002,2.15E-10,,
,8.028002,2.15E-10,,
,8.030002,2.15E-10,,
,8.032002,2.15E-10,,
,8.034002,2.15E-10,,
,8.036002,2.17E-10,,
,8.038002,2.19E-10,,
,8.040002,2.21E-10,,
,8.042002,2.21E-10,,
,8.044002,2.21E-10,,
,8.046002,2.20E-10,,
,8.048002,2.19E-10,,
,8.050002,2.20E-10,,
,8.052002,2.21E-10,,
,8.054002,2.23E-10,,
,8.056002,2.25E-10,,
,8.058002,2.26E-10,,
,8.060002,2.26E-10,,
,8.062002,2.26E-10,,
,8.064002,2.25E-10,,
,8.066002,2.24E-10,,
,8.068002,2.25E-10,,
,8.070002,2.26E-10,,
,8.072002,2.27E-10,,
,8.074002,2.28E-10,,
,8.076002,2.28E-10,,
,8.078002,2.27E-10,,
,8.080002,2.26E-10,,
,8.082002,2.25E-10,,
,8.084002,2.24E-10,,
,8.086002,2.25E-10,,
,8.088002,2.26E-10,,
,8.090002,2.28E-10,,
,8.092002,2.28E-10,,
,8.094002,2.27E-10,,
,8.096002,2.26E-10,,
,8.098002,2.24E-10,,
,8.100002,2.23E-10,,
,8.102002,2.23E-10,,
,8.104002,2.23E-10,,
,8.106002,2.23E-10,,
,8.108002,2.23E-10,,
,8.110002,2.22E-10,,
,8.112002,2.20E-10,,
,8.114002,2.18E-10,,
,8.116002,2.17E-10,,
,8.118002,2.16E-10,,
,8.120002,2.16E-10,,
,8.122002,2.16E-10,,
,8.124002,2.16E-10,,
,8.126002,2.15E-10,,
,8.128002,2.12E-10,,
,8.130002,2.10E-10,,
,8.132002,2.08E-10,,
,8.134002,2.07E-10,,
,8.136002,2.06E-10,,
,8.138002,2.06E-10,,
,8.140002,2.06E-10,,
,8.142002,2.05E-10,,
,8.144002,2.03E-10,,
,8.146002,2.00E-10,,
,8.148002,1.98E-10,,
,8.150002,1.96E-10,,
,8.152002,1.96E-10,,
,8.154002,1.96E-10,,
,8.156002,1.96E-10,,
,8.158002,1.95E-10,,
,8.160002,1.93E-10,,
,8.162002,1.91E-10,,
,8.164002,1.88E-10,,
,8.166002,1.86E-10,,
,8.168002,1.86E-10,,
,8.170002,1.85E-10,,
,8.172002,1.86E-10,,
,8.174002,1.86E-10,,
,8.176002,1.85E-10,,
,8.178002,1.83E-10,,
,8.180002,1.80E-10,,
,8.182002,1.78E-10,,
,8.184002,1.77E-10,,
,8.186002,1.77E-10,,
,8.188002,1.77E-10,,
,8.190002,1.78E-10,,
,8.192002,1.78E-10,,
,8.194002,1.76E-10,,
,8.196002,1.74E-10,,
,8.198002,1.72E-10,,
,8.200002,1.71E-10,,
,8.202002,1.71E-10,,
,8.204002,1.71E-10,,
,8.206002,1.72E-10,,
,8.208002,1.72E-10,,
,8.210002,1.71E-10,,
,8.212002,1.69E-10,,
,8.214002,1.68E-10,,
,8.216002,1.67E-10,,
,8.218002,1.66E-10,,
,8.220002,1.67E-10,,
,8.222002,1.68E-10,,
,8.224002,1.69E-10,,
,8.226002,1.69E-10,,
,8.228002,1.68E-10,,
,8.230002,1.66E-10,,
,8.232002,1.64E-10,,
,8.234002,1.64E-10,,
,8.236002,1.64E-10,,
,8.238002,1.65E-10,,
,8.240002,1.66E-10,,
,8.242002,1.66E-10,,
,8.244002,1.64E-10,,
,8.246002,1.63E-10,,
,8.248002,1.61E-10,,
,8.250002,1.61E-10,,
,8.252002,1.61E-10,,
,8.254002,1.62E-10,,
,8.256002,1.63E-10,,
,8.258002,1.64E-10,,
,8.260002,1.63E-10,,
,8.262002,1.62E-10,,
,8.264002,1.60E-10,,
,8.266002,1.59E-10,,
,8.268002,1.59E-10,,
,8.270002,1.59E-10,,
,8.272002,1.60E-10,,
,8.274002,1.61E-10,,
,8.276002,1.61E-10,,
,8.278002,1.59E-10,,
,8.280002,1.58E-10,,
,8.282002,1.56E-10,,
,8.284002,1.56E-10,,
,8.286002,1.57E-10,,
,8.288002,1.58E-10,,
,8.290002,1.59E-10,,
,8.292002,1.59E-10,,
,8.294002,1.58E-10,,
,8.296002,1.56E-10,,
,8.298002,1.55E-10,,
,8.300002,1.54E-10,,
,8.302002,1.54E-10,,
,8.304002,1.55E-10,,
,8.306002,1.56E-10,,
,8.308002,1.56E-10,,
,8.310002,1.55E-10,,
,8.312002,1.54E-10,,
,8.314002,1.52E-10,,
,8.316002,1.51E-10,,
,8.318002,1.51E-10,,
,8.320002,1.51E-10,,
,8.322002,1.52E-10,,
,8.324002,1.53E-10,,
,8.326002,1.53E-10,,
,8.328002,1.51E-10,,
,8.330002,1.48E-10,,
,8.332002,1.47E-10,,
,8.334002,1.46E-10,,
,8.336002,1.46E-10,,
,8.338002,1.46E-10,,
,8.340002,1.47E-10,,
,8.342002,1.47E-10,,
,8.344002,1.45E-10,,
,8.346002,1.43E-10,,
,8.348002,1.41E-10,,
,8.350002,1.40E-10,,
,8.352002,1.40E-10,,
,8.354002,1.41E-10,,
,8.356002,1.41E-10,,
,8.358002,1.41E-10,,
,8.360002,1.40E-10,,
,8.362002,1.38E-10,,
,8.364002,1.36E-10,,
,8.366002,1.34E-10,,
,8.368002,1.33E-10,,
,8.370002,1.33E-10,,
,8.372002,1.34E-10,,
,8.374002,1.34E-10,,
,8.376002,1.33E-10,,
,8.378002,1.31E-10,,
,8.380002,1.28E-10,,
,8.382002,1.26E-10,,
,8.384002,1.25E-10,,
,8.386002,1.25E-10,,
,8.388002,1.25E-10,,
,8.390002,1.25E-10,,
,8.392002,1.24E-10,,
,8.394002,1.23E-10,,
,8.396002,1.20E-10,,
,8.398002,1.18E-10,,
,8.400002,1.16E-10,,
,8.402002,1.15E-10,,
,8.404002,1.14E-10,,
,8.406002,1.14E-10,,
,8.408002,1.14E-10,,
,8.410002,1.12E-10,,
,8.412002,1.10E-10,,
,8.414002,1.07E-10,,
,8.416002,1.05E-10,,
,8.418002,1.05E-10,,
,8.420002,1.05E-10,,
,8.422002,1.05E-10,,
,8.424002,1.05E-10,,
,8.426002,1.03E-10,,
,8.428002,1.01E-10,,
,8.430002,9.81E-11,,
,8.432002,9.55E-11,,
,8.434002,9.39E-11,,
,8.436002,9.32E-11,,
,8.438002,9.29E-11,,
,8.440002,9.26E-11,,
,8.442002,9.15E-11,,
,8.444002,8.95E-11,,
,8.446002,8.67E-11,,
,8.448002,8.40E-11,,
,8.450002,8.20E-11,,
,8.452002,8.08E-11,,
,8.454002,8.03E-11,,
,8.456002,8.01E-11,,
,8.458002,7.94E-11,,
,8.460002,7.75E-11,,
,8.462002,7.47E-11,,
,8.464002,7.17E-11,,
,8.466002,6.92E-11,,
,8.468002,6.76E-11,,
,8.470002,6.68E-11,,
,8.472002,6.66E-11,,
,8.474002,6.59E-11,,
,8.476002,6.43E-11,,
,8.478002,6.15E-11,,
,8.480002,5.85E-11,,
,8.482002,5.62E-11,,
,8.484002,5.49E-11,,
,8.486002,5.47E-11,,
,8.488002,5.49E-11,,
,8.490002,5.49E-11,,
,8.492002,5.40E-11,,
,8.494002,5.17E-11,,
,8.496002,4.90E-11,,
,8.498002,4.65E-11,,
,8.500002,4.48E-11,,
,8.502002,4.40E-11,,
,8.504002,4.38E-11,,
,8.506002,4.37E-11,,
,8.508002,4.31E-11,,
,8.510002,4.16E-11,,
,8.512002,3.92E-11,,
,8.514002,3.68E-11,,
,8.516002,3.51E-11,,
,8.518002,3.43E-11,,
,8.520002,3.43E-11,,
,8.522002,3.50E-11,,
,8.524002,3.53E-11,,
,8.526002,3.47E-11,,
,8.528002,3.26E-11,,
,8.530002,3.02E-11,,
,8.532002,2.82E-11,,
,8.534002,2.71E-11,,
,8.536002,2.69E-11,,
,8.538002,2.72E-11,,
,8.540002,2.77E-11,,
,8.542002,2.72E-11,,
,8.544002,2.58E-11,,
,8.546002,2.37E-11,,
,8.548002,2.21E-11,,
,8.550002,2.12E-11,,
,8.552002,2.12E-11,,
,8.554002,2.17E-11,,
,8.556002,2.25E-11,,
,8.558002,2.27E-11,,
,8.560002,2.19E-11,,
,8.562002,2.01E-11,,
,8.564002,1.81E-11,,
,8.566002,1.68E-11,,
,8.568002,1.63E-11,,
,8.570002,1.65E-11,,
,8.572002,1.75E-11,,
,8.574002,1.79E-11,,
,8.576002,1.76E-11,,
,8.578002,1.60E-11,,
,8.580002,1.39E-11,,
,8.582002,1.26E-11,,
,8.584002,1.20E-11,,
,8.586002,1.25E-11,,
,8.588002,1.34E-11,,
,8.590002,1.44E-11,,
,8.592002,1.47E-11,,
,8.594002,1.38E-11,,
,8.596002,1.22E-11,,
,8.598002,1.04E-11,,
,8.600002,9.53E-12,,
,8.602002,9.53E-12,,
,8.604002,1.04E-11,,
,8.606002,1.14E-11,,
,8.608002,1.21E-11,,
,8.610002,1.19E-11,,
,8.612002,1.07E-11,,
,8.614002,9.31E-12,,
,8.616002,8.78E-12,,
,8.618002,9.10E-12,,
,8.620002,1.02E-11,,
,8.622002,1.15E-11,,
,8.624002,1.26E-11,,
,8.626002,1.30E-11,,
,8.628002,1.22E-11,,
,8.630002,1.11E-11,,
,8.632002,1.04E-11,,
,8.634002,1.04E-11,,
,8.636002,1.14E-11,,
,8.638002,1.29E-11,,
,8.640002,1.45E-11,,
,8.642002,1.53E-11,,
,8.644002,1.52E-11,,
,8.646002,1.45E-11,,
,8.648002,1.38E-11,,
,8.650002,1.38E-11,,
,8.652002,1.51E-11,,
,8.654002,1.69E-11,,
,8.656002,1.91E-11,,
,8.658002,2.05E-11,,
,8.660002,2.08E-11,,
,8.662002,2.04E-11,,
,8.664002,1.95E-11,,
,8.666002,1.92E-11,,
,8.668002,1.95E-11,,
,8.670002,2.10E-11,,
,8.672002,2.29E-11,,
,8.674002,2.47E-11,,
,8.676002,2.50E-11,,
,8.678002,2.47E-11,,
,8.680002,2.38E-11,,
,8.682002,2.33E-11,,
,8.684002,2.36E-11,,
,8.686002,2.49E-11,,
,8.688002,2.70E-11,,
,8.690002,2.87E-11,,
,8.692002,2.98E-11,,
,8.694002,2.97E-11,,
,8.696002,2.90E-11,,
,8.698002,2.81E-11,,
,8.700002,2.81E-11,,
,8.702002,2.91E-11,,
,8.704002,3.09E-11,,
,8.706002,3.28E-11,,
,8.708002,3.40E-11,,
,8.710002,3.42E-11,,
,8.712002,3.34E-11,,
,8.714002,3.24E-11,,
,8.716002,3.19E-11,,
,8.718002,3.25E-11,,
,8.720002,3.41E-11,,
,8.722002,3.59E-11,,
,8.724002,3.72E-11,,
,8.726002,3.75E-11,,
,8.728002,3.68E-11,,
,8.730002,3.57E-11,,
,8.732002,3.48E-11,,
,8.734002,3.47E-11,,
,8.736002,3.54E-11,,
,8.738002,3.69E-11,,
,8.740002,3.82E-11,,
,8.742002,3.87E-11,,
,8.744002,3.81E-11,,
,8.746002,3.71E-11,,
,8.748002,3.62E-11,,
,8.750002,3.60E-11,,
,8.752002,3.68E-11,,
,8.754002,3.83E-11,,
,8.756002,3.98E-11,,
,8.758002,4.06E-11,,
,8.760002,4.02E-11,,
,8.762002,3.92E-11,,
,8.764002,3.79E-11,,
,8.766002,3.72E-11,,
,8.768002,3.72E-11,,
,8.770002,3.82E-11,,
,8.772002,3.94E-11,,
,8.774002,4.03E-11,,
,8.776002,4.06E-11,,
,8.778002,3.97E-11,,
,8.780002,3.85E-11,,
,8.782002,3.74E-11,,
,8.784002,3.75E-11,,
,8.786002,3.85E-11,,
,8.788002,4.01E-11,,
,8.790002,4.14E-11,,
,8.792002,4.20E-11,,
,8.794002,4.15E-11,,
,8.796002,4.04E-11,,
,8.798002,3.96E-11,,
,8.800002,3.93E-11,,
,8.802002,3.98E-11,,
,8.804002,4.10E-11,,
,8.806002,4.25E-11,,
,8.808002,4.36E-11,,
,8.810002,4.33E-11,,
,8.812002,4.23E-11,,
,8.814002,4.12E-11,,
,8.816002,4.09E-11,,
,8.818002,4.15E-11,,
,8.820002,4.28E-11,,
,8.822002,4.46E-11,,
,8.824002,4.60E-11,,
,8.826002,4.64E-11,,
,8.828002,4.57E-11,,
,8.830002,4.45E-11,,
,8.832002,4.39E-11,,
,8.834002,4.38E-11,,
,8.836002,4.48E-11,,
,8.838002,4.61E-11,,
,8.840002,4.74E-11,,
,8.842002,4.79E-11,,
,8.844002,4.75E-11,,
,8.846002,4.65E-11,,
,8.848002,4.54E-11,,
,8.850002,4.51E-11,,
,8.852002,4.59E-11,,
,8.854002,4.74E-11,,
,8.856002,4.91E-11,,
,8.858002,5.03E-11,,
,8.860002,5.04E-11,,
,8.862002,4.97E-11,,
,8.864002,4.85E-11,,
,8.866002,4.77E-11,,
,8.868002,4.76E-11,,
,8.870002,4.85E-11,,
,8.872002,4.98E-11,,
,8.874002,5.10E-11,,
,8.876002,5.11E-11,,
,8.878002,5.02E-11,,
,8.880002,4.87E-11,,
,8.882002,4.77E-11,,
,8.884002,4.79E-11,,
,8.886002,4.90E-11,,
,8.888002,5.08E-11,,
,8.890002,5.23E-11,,
,8.892002,5.29E-11,,
,8.894002,5.25E-11,,
,8.896002,5.13E-11,,
,8.898002,5.02E-11,,
,8.900002,4.98E-11,,
,8.902002,5.03E-11,,
,8.904002,5.14E-11,,
,8.906002,5.25E-11,,
,8.908002,5.29E-11,,
,8.910002,5.27E-11,,
,8.912002,5.16E-11,,
,8.914002,5.05E-11,,
,8.916002,4.98E-11,,
,8.918002,5.01E-11,,
,8.920002,5.11E-11,,
,8.922002,5.28E-11,,
,8.924002,5.39E-11,,
,8.926002,5.43E-11,,
,8.928002,5.30E-11,,
,8.930002,5.16E-11,,
,8.932002,5.04E-11,,
,8.934002,5.01E-11,,
,8.936002,5.05E-11,,
,8.938002,5.14E-11,,
,8.940002,5.26E-11,,
,8.942002,5.28E-11,,
,8.944002,5.20E-11,,
,8.946002,5.04E-11,,
,8.948002,4.93E-11,,
,8.950002,4.88E-11,,
,8.952002,4.91E-11,,
,8.954002,5.01E-11,,
,8.956002,5.13E-11,,
,8.958002,5.21E-11,,
,8.960002,5.18E-11,,
,8.962002,5.03E-11,,
,8.964002,4.89E-11,,
,8.966002,4.81E-11,,
,8.968002,4.81E-11,,
,8.970002,4.87E-11,,
,8.972002,4.96E-11,,
,8.974002,5.04E-11,,
,8.976002,5.01E-11,,
,8.978002,4.88E-11,,
,8.980002,4.70E-11,,
,8.982002,4.58E-11,,
,8.984002,4.57E-11,,
,8.986002,4.66E-11,,
,8.988002,4.75E-11,,
,8.990002,4.86E-11,,
,8.992002,4.90E-11,,
,8.994002,4.84E-11,,
,8.996002,4.72E-11,,
,8.998002,4.58E-11,,
,9.000002,4.54E-11,,
,9.002002,4.56E-11,,
,9.004002,4.67E-11,,
,9.006002,4.77E-11,,
,9.008002,4.82E-11,,
,9.010002,4.75E-11,,
,9.012002,4.60E-11,,
,9.014002,4.45E-11,,
,9.016002,4.35E-11,,
,9.018002,4.37E-11,,
,9.020002,4.46E-11,,
,9.022002,4.61E-11,,
,9.024002,4.72E-11,,
,9.026002,4.71E-11,,
,9.028002,4.59E-11,,
,9.030002,4.44E-11,,
,9.032002,4.37E-11,,
,9.034002,4.37E-11,,
,9.036002,4.41E-11,,
,9.038002,4.51E-11,,
,9.040002,4.60E-11,,
,9.042002,4.65E-11,,
,9.044002,4.55E-11,,
,9.046002,4.38E-11,,
,9.048002,4.25E-11,,
,9.050002,4.16E-11,,
,9.052002,4.20E-11,,
,9.054002,4.27E-11,,
,9.056002,4.40E-11,,
,9.058002,4.42E-11,,
,9.060002,4.36E-11,,
,9.062002,4.21E-11,,
,9.064002,4.07E-11,,
,9.066002,3.97E-11,,
,9.068002,3.95E-11,,
,9.070002,4.02E-11,,
,9.072002,4.11E-11,,
,9.074002,4.16E-11,,
,9.076002,4.11E-11,,
,9.078002,3.99E-11,,
,9.080002,3.84E-11,,
,9.082002,3.74E-11,,
,9.084002,3.69E-11,,
,9.086002,3.74E-11,,
,9.088002,3.85E-11,,
,9.090002,3.98E-11,,
,9.092002,4.00E-11,,
,9.094002,3.92E-11,,
,9.096002,3.75E-11,,
,9.098002,3.60E-11,,
,9.100002,3.51E-11,,
,9.102002,3.50E-11,,
,9.104002,3.56E-11,,
,9.106002,3.62E-11,,
,9.108002,3.60E-11,,
,9.110002,3.49E-11,,
,9.112002,3.31E-11,,
,9.114002,3.11E-11,,
,9.116002,2.99E-11,,
,9.118002,2.96E-11,,
,9.120002,3.04E-11,,
,9.122002,3.11E-11,,
,9.124002,3.13E-11,,
,9.126002,3.05E-11,,
,9.128002,2.86E-11,,
,9.130002,2.64E-11,,
,9.132002,2.43E-11,,
,9.134002,2.31E-11,,
,9.136002,2.26E-11,,
,9.138002,2.27E-11,,
,9.140002,2.25E-11,,
,9.142002,2.18E-11,,
,9.144002,1.97E-11,,
,9.146002,1.72E-11,,
,9.148002,1.43E-11,,
,9.150002,1.25E-11,,
,9.152002,1.17E-11,,
,9.154002,1.17E-11,,
,9.156002,1.15E-11,,
,9.158002,1.05E-11,,
,9.160002,8.46E-12,,
,9.162002,5.24E-12,,
,9.164002,2.01E-12,,
,9.166002,-9.92E-13,,
,9.168002,-3.03E-12,,
,9.170002,-4.75E-12,,
,9.172002,-6.36E-12,,
,9.174002,-8.29E-12,,
,9.176002,-1.11E-11,,
,9.178002,-1.49E-11,,
,9.180002,-1.96E-11,,
,9.182002,-2.38E-11,,
,9.184002,-2.70E-11,,
,9.186002,-2.92E-11,,
,9.188002,-3.15E-11,,
,9.190002,-3.38E-11,,
,9.192002,-3.74E-11,,
,9.194002,-4.19E-11,,
,9.196002,-4.76E-11,,
,9.198002,-5.33E-11,,
,9.200002,-5.84E-11,,
,9.202002,-6.28E-11,,
,9.204002,-6.69E-11,,
,9.206002,-7.11E-11,,
,9.208002,-7.62E-11,,
,9.210002,-8.26E-11,,
,9.212002,-9.01E-11,,
,9.214002,-9.78E-11,,
,9.216002,-1.05E-10,,
,9.218002,-1.11E-10,,
,9.220002,-1.17E-10,,
,9.222002,-1.21E-10,,
,9.224002,-1.27E-10,,
,9.226002,-1.33E-10,,
,9.228002,-1.40E-10,,
,9.230002,-1.48E-10,,
,9.232002,-1.55E-10,,
,9.234002,-1.62E-10,,
,9.236002,-1.67E-10,,
,9.238002,-1.71E-10,,
,9.240002,-1.76E-10,,
,9.242002,-1.81E-10,,
,9.244002,-1.87E-10,,
,9.246002,-1.93E-10,,
,9.248002,-1.98E-10,,
,9.250002,-2.03E-10,,
,9.252002,-2.06E-10,,
,9.254002,-2.08E-10,,
,9.256002,-2.10E-10,,
,9.258002,-2.12E-10,,
,9.260002,-2.15E-10,,
,9.262002,-2.19E-10,,
,9.264002,-2.23E-10,,
,9.266002,-2.26E-10,,
,9.268002,-2.28E-10,,
,9.270002,-2.29E-10,,
,9.272002,-2.29E-10,,
,9.274002,-2.30E-10,,
,9.276002,-2.31E-10,,
,9.278002,-2.32E-10,,
,9.280002,-2.34E-10,,
,9.282002,-2.36E-10,,
,9.284002,-2.36E-10,,
,9.286002,-2.36E-10,,
,9.288002,-2.34E-10,,
,9.290002,-2.33E-10,,
,9.292002,-2.32E-10,,
,9.294002,-2.33E-10,,
,9.296002,-2.34E-10,,
,9.298002,-2.34E-10,,
,9.300002,-2.35E-10,,
,9.302002,-2.34E-10,,
,9.304002,-2.32E-10,,
,9.306002,-2.31E-10,,
,9.308002,-2.29E-10,,
,9.310002,-2.29E-10,,
,9.312002,-2.29E-10,,
,9.314002,-2.29E-10,,
,9.316002,-2.29E-10,,
,9.318002,-2.28E-10,,
,9.320002,-2.25E-10,,
,9.322002,-2.23E-10,,
,9.324002,-2.21E-10,,
,9.326002,-2.19E-10,,
,9.328002,-2.19E-10,,
,9.330002,-2.19E-10,,
,9.332002,-2.19E-10,,
,9.334002,-2.18E-10,,
,9.336002,-2.16E-10,,
,9.338002,-2.13E-10,,
,9.340002,-2.11E-10,,
,9.342002,-2.09E-10,,
,9.344002,-2.08E-10,,
,9.346002,-2.08E-10,,
,9.348002,-2.07E-10,,
,9.350002,-2.06E-10,,
,9.352002,-2.04E-10,,
,9.354002,-2.01E-10,,
,9.356002,-1.98E-10,,
,9.358002,-1.95E-10,,
,9.360002,-1.94E-10,,
,9.362002,-1.94E-10,,
,9.364002,-1.94E-10,,
,9.366002,-1.93E-10,,
,9.368002,-1.91E-10,,
,9.370002,-1.89E-10,,
,9.372002,-1.86E-10,,
,9.374002,-1.84E-10,,
,9.376002,-1.82E-10,,
,9.378002,-1.82E-10,,
,9.380002,-1.81E-10,,
,9.382002,-1.81E-10,,
,9.384002,-1.79E-10,,
,9.386002,-1.77E-10,,
,9.388002,-1.74E-10,,
,9.390002,-1.71E-10,,
,9.392002,-1.69E-10,,
,9.394002,-1.68E-10,,
,9.396002,-1.68E-10,,
,9.398002,-1.67E-10,,
,9.400002,-1.66E-10,,
,9.402002,-1.64E-10,,
,9.404002,-1.62E-10,,
,9.406002,-1.59E-10,,
,9.408002,-1.57E-10,,
,9.410002,-1.56E-10,,
,9.412002,-1.55E-10,,
,9.414002,-1.56E-10,,
,9.416002,-1.55E-10,,
,9.418002,-1.54E-10,,
,9.420002,-1.52E-10,,
,9.422002,-1.49E-10,,
,9.424002,-1.47E-10,,
,9.426002,-1.45E-10,,
,9.428002,-1.44E-10,,
,9.430002,-1.44E-10,,
,9.432002,-1.44E-10,,
,9.434002,-1.43E-10,,
,9.436002,-1.41E-10,,
,9.438002,-1.38E-10,,
,9.440002,-1.36E-10,,
,9.442002,-1.35E-10,,
,9.444002,-1.34E-10,,
,9.446002,-1.35E-10,,
,9.448002,-1.35E-10,,
,9.450002,-1.34E-10,,
,9.452002,-1.32E-10,,
,9.454002,-1.30E-10,,
,9.456002,-1.27E-10,,
,9.458002,-1.25E-10,,
,9.460002,-1.24E-10,,
,9.462002,-1.24E-10,,
,9.464002,-1.24E-10,,
,9.466002,-1.24E-10,,
,9.468002,-1.23E-10,,
,9.470002,-1.21E-10,,
,9.472002,-1.19E-10,,
,9.474002,-1.16E-10,,
,9.476002,-1.15E-10,,
,9.478002,-1.15E-10,,
,9.480002,-1.16E-10,,
,9.482002,-1.16E-10,,
,9.484002,-1.16E-10,,
,9.486002,-1.14E-10,,
,9.488002,-1.12E-10,,
,9.490002,-1.09E-10,,
,9.492002,-1.08E-10,,
,9.494002,-1.07E-10,,
,9.496002,-1.08E-10,,
,9.498002,-1.08E-10,,
,9.500002,-1.07E-10,,
,9.502002,-1.06E-10,,
,9.504002,-1.04E-10,,
,9.506002,-1.01E-10,,
,9.508002,-1.00E-10,,
,9.510002,-9.98E-11,,
,9.512002,-1.00E-10,,
,9.514002,-1.01E-10,,
,9.516002,-1.00E-10,,
,9.518002,-9.94E-11,,
,9.520002,-9.74E-11,,
,9.522002,-9.50E-11,,
,9.524002,-9.31E-11,,
,9.526002,-9.20E-11,,
,9.528002,-9.24E-11,,
,9.530002,-9.28E-11,,
,9.532002,-9.31E-11,,
,9.534002,-9.25E-11,,
,9.536002,-9.10E-11,,
,9.538002,-8.90E-11,,
,9.540002,-8.68E-11,,
,9.542002,-8.57E-11,,
,9.544002,-8.53E-11,,
,9.546002,-8.60E-11,,
,9.548002,-8.66E-11,,
,9.550002,-8.67E-11,,
,9.552002,-8.54E-11,,
,9.554002,-8.29E-11,,
,9.556002,-8.03E-11,,
,9.558002,-7.85E-11,,
,9.560002,-7.82E-11,,
,9.562002,-7.86E-11,,
,9.564002,-7.90E-11,,
,9.566002,-7.90E-11,,
,9.568002,-7.83E-11,,
,9.570002,-7.68E-11,,
,9.572002,-7.50E-11,,
,9.574002,-7.33E-11,,
,9.576002,-7.29E-11,,
,9.578002,-7.31E-11,,
,9.580002,-7.37E-11,,
,9.582002,-7.38E-11,,
,9.584002,-7.33E-11,,
,9.586002,-7.21E-11,,
,9.588002,-7.02E-11,,
,9.590002,-6.83E-11,,
,9.592002,-6.72E-11,,
,9.594002,-6.72E-11,,
,9.596002,-6.81E-11,,
,9.598002,-6.86E-11,,
,9.600002,-6.86E-11,,
,9.602002,-6.77E-11,,
,9.604002,-6.63E-11,,
,9.606002,-6.44E-11,,
,9.608002,-6.33E-11,,
,9.610002,-6.33E-11,,
,9.612002,-6.43E-11,,
,9.614002,-6.54E-11,,
,9.616002,-6.57E-11,,
,9.618002,-6.52E-11,,
,9.620002,-6.37E-11,,
,9.622002,-6.20E-11,,
,9.624002,-6.03E-11,,
,9.626002,-5.98E-11,,
,9.628002,-6.04E-11,,
,9.630002,-6.14E-11,,
,9.632002,-6.20E-11,,
,9.634002,-6.19E-11,,
,9.636002,-6.10E-11,,
,9.638002,-5.96E-11,,
,9.640002,-5.80E-11,,
,9.642002,-5.70E-11,,
,9.644002,-5.70E-11,,
,9.646002,-5.80E-11,,
,9.648002,-5.90E-11,,
,9.650002,-5.92E-11,,
,9.652002,-5.81E-11,,
,9.654002,-5.62E-11,,
,9.656002,-5.42E-11,,
,9.658002,-5.31E-11,,
,9.660002,-5.30E-11,,
,9.662002,-5.38E-11,,
,9.664002,-5.47E-11,,
,9.666002,-5.50E-11,,
,9.668002,-5.43E-11,,
,9.670002,-5.31E-11,,
,9.672002,-5.16E-11,,
,9.674002,-5.03E-11,,
,9.676002,-5.01E-11,,
,9.678002,-5.07E-11,,
,9.680002,-5.19E-11,,
,9.682002,-5.23E-11,,
,9.684002,-5.20E-11,,
,9.686002,-5.05E-11,,
,9.688002,-4.88E-11,,
,9.690002,-4.72E-11,,
,9.692002,-4.65E-11,,
,9.694002,-4.68E-11,,
,9.696002,-4.78E-11,,
,9.698002,-4.87E-11,,
,9.700002,-4.88E-11,,
,9.702002,-4.80E-11,,
,9.704002,-4.69E-11,,
,9.706002,-4.58E-11,,
,9.708002,-4.51E-11,,
,9.710002,-4.53E-11,,
,9.712002,-4.65E-11,,
,9.714002,-4.78E-11,,
,9.716002,-4.83E-11,,
,9.718002,-4.78E-11,,
,9.720002,-4.64E-11,,
,9.722002,-4.46E-11,,
,9.724002,-4.32E-11,,
,9.726002,-4.29E-11,,
,9.728002,-4.37E-11,,
,9.730002,-4.49E-11,,
,9.732002,-4.54E-11,,
,9.734002,-4.54E-11,,
,9.736002,-4.48E-11,,
,9.738002,-4.37E-11,,
,9.740002,-4.25E-11,,
,9.742002,-4.19E-11,,
,9.744002,-4.24E-11,,
,9.746002,-4.35E-11,,
,9.748002,-4.45E-11,,
,9.750002,-4.47E-11,,
,9.752002,-4.35E-11,,
,9.754002,-4.17E-11,,
,9.756002,-3.95E-11,,
,9.758002,-3.82E-11,,
,9.760002,-3.81E-11,,
,9.762002,-3.89E-11,,
,9.764002,-3.96E-11,,
,9.766002,-3.99E-11,,
,9.768002,-3.90E-11,,
,9.770002,-3.77E-11,,
,9.772002,-3.60E-11,,
,9.774002,-3.48E-11,,
,9.776002,-3.46E-11,,
,9.778002,-3.51E-11,,
,9.780002,-3.62E-11,,
,9.782002,-3.66E-11,,
,9.784002,-3.64E-11,,
,9.786002,-3.53E-11,,
,9.788002,-3.39E-11,,
,9.790002,-3.26E-11,,
,9.792002,-3.17E-11,,
,9.794002,-3.19E-11,,
,9.796002,-3.30E-11,,
,9.798002,-3.42E-11,,
,9.800002,-3.47E-11,,
,9.802002,-3.43E-11,,
,9.804002,-3.32E-11,,
,9.806002,-3.18E-11,,
,9.808002,-3.09E-11,,
,9.810002,-3.11E-11,,
,9.812002,-3.21E-11,,
,9.814002,-3.35E-11,,
,9.816002,-3.41E-11,,
,9.818002,-3.37E-11,,
,9.820002,-3.22E-11,,
,9.822002,-3.06E-11,,
,9.824002,-2.93E-11,,
,9.826002,-2.91E-11,,
,9.828002,-2.99E-11,,
,9.830002,-3.12E-11,,
,9.832002,-3.22E-11,,
,9.834002,-3.24E-11,,
,9.836002,-3.16E-11,,
,9.838002,-3.02E-11,,
,9.840002,-2.88E-11,,
,9.842002,-2.83E-11,,
,9.844002,-2.88E-11,,
,9.846002,-3.02E-11,,
,9.848002,-3.14E-11,,
,9.850002,-3.15E-11,,
,9.852002,-3.04E-11,,
,9.854002,-2.88E-11,,
,9.856002,-2.73E-11,,
,9.858002,-2.65E-11,,
,9.860002,-2.66E-11,,
,9.862002,-2.77E-11,,
,9.864002,-2.90E-11,,
,9.866002,-3.00E-11,,
,9.868002,-2.99E-11,,
,9.870002,-2.90E-11,,
,9.872002,-2.76E-11,,
,9.874002,-2.68E-11,,
,9.876002,-2.68E-11,,
,9.878002,-2.77E-11,,
,9.880002,-2.89E-11,,
,9.882002,-2.98E-11,,
,9.884002,-2.98E-11,,
,9.886002,-2.89E-11,,
,9.888002,-2.74E-11,,
,9.890002,-2.59E-11,,
,9.892002,-2.50E-11,,
,9.894002,-2.55E-11,,
,9.896002,-2.64E-11,,
,9.898002,-2.77E-11,,
,9.900002,-2.80E-11,,
,9.902002,-2.76E-11,,
,9.904002,-2.61E-11,,
,9.906002,-2.45E-11,,
,9.908002,-2.36E-11,,
,9.910002,-2.38E-11,,
,9.912002,-2.50E-11,,
,9.914002,-2.61E-11,,
,9.916002,-2.69E-11,,
,9.918002,-2.64E-11,,
,9.920002,-2.56E-11,,
,9.922002,-2.43E-11,,
,9.924002,-2.33E-11,,
,9.926002,-2.33E-11,,
,9.928002,-2.44E-11,,
,9.930002,-2.61E-11,,
,9.932002,-2.71E-11,,
,9.934002,-2.73E-11,,
,9.936002,-2.63E-11,,
,9.938002,-2.50E-11,,
,9.940002,-2.36E-11,,
,9.942002,-2.32E-11,,
,9.944002,-2.39E-11,,
,9.946002,-2.51E-11,,
,9.948002,-2.63E-11,,
,9.950002,-2.69E-11,,
,9.952002,-2.64E-11,,
,9.954002,-2.50E-11,,
,9.956002,-2.34E-11,,
,9.958002,-2.24E-11,,
,9.960002,-2.27E-11,,
,9.962002,-2.39E-11,,
,9.964002,-2.54E-11,,
,9.966002,-2.64E-11,,
,9.968002,-2.65E-11,,
,9.970002,-2.58E-11,,
,9.972002,-2.46E-11,,
,9.974002,-2.35E-11,,
,9.976002,-2.36E-11,,
,9.978002,-2.44E-11,,
,9.980002,-2.60E-11,,
,9.982002,-2.71E-11,,
,9.984002,-2.75E-11,,
,9.986002,-2.69E-11,,
,9.988002,-2.54E-11,,
,9.990002,-2.43E-11,,
,9.992002,-2.38E-11,,
,9.994002,-2.43E-11,,
,9.996002,-2.53E-11,,
,9.998002,-2.65E-11,,
,10.000002,-2.72E-11,,
,10.002002,-2.68E-11,,
,10.004002,-2.57E-11,,
,10.006002,-2.45E-11,,
,10.008002,-2.38E-11,,
,10.010002,-2.42E-11,,
,10.012002,-2.55E-11,,
,10.014002,-2.70E-11,,
,10.016002,-2.78E-11,,
,10.018002,-2.77E-11,,
,10.020002,-2.66E-11,,
,10.022002,-2.50E-11,,
,10.024002,-2.39E-11,,
,10.026002,-2.35E-11,,
,10.028002,-2.43E-11,,
,10.030002,-2.56E-11,,
,10.032002,-2.66E-11,,
,10.034002,-2.65E-11,,
,10.036002,-2.54E-11,,
,10.038002,-2.39E-11,,
,10.040002,-2.26E-11,,
,10.042002,-2.24E-11,,
,10.044002,-2.28E-11,,
,10.046002,-2.40E-11,,
,10.048002,-2.50E-11,,
,10.050002,-2.56E-11,,
,10.052002,-2.53E-11,,
,10.054002,-2.40E-11,,
,10.056002,-2.25E-11,,
,10.058002,-2.15E-11,,
,10.060002,-2.19E-11,,
,10.062002,-2.29E-11,,
,10.064002,-2.41E-11,,
,10.066002,-2.46E-11,,
,10.068002,-2.47E-11,,
,10.070002,-2.36E-11,,
,10.072002,-2.21E-11,,
,10.074002,-2.09E-11,,
,10.076002,-2.09E-11,,
,10.078002,-2.17E-11,,
,10.080002,-2.32E-11,,
,10.082002,-2.43E-11,,
,10.084002,-2.47E-11,,
,10.086002,-2.39E-11,,
,10.088002,-2.24E-11,,
,10.090002,-2.07E-11,,
,10.092002,-2.00E-11,,
,10.094002,-2.05E-11,,
,10.096002,-2.15E-11,,
,10.098002,-2.27E-11,,
,10.100002,-2.30E-11,,
,10.102002,-2.25E-11,,
,10.104002,-2.15E-11,,
,10.106002,-2.02E-11,,
,10.108002,-1.97E-11,,
,10.110002,-1.98E-11,,
,10.112002,-2.10E-11,,
,10.114002,-2.21E-11,,
,10.116002,-2.28E-11,,
,10.118002,-2.27E-11,,
,10.120002,-2.16E-11,,
,10.122002,-2.01E-11,,
,10.124002,-1.87E-11,,
,10.126002,-1.86E-11,,
,10.128002,-1.97E-11,,
,10.130002,-2.10E-11,,
,10.132002,-2.18E-11,,
,10.134002,-2.17E-11,,
,10.136002,-2.10E-11,,
,10.138002,-1.97E-11,,
,10.140002,-1.85E-11,,
,10.142002,-1.81E-11,,
,10.144002,-1.90E-11,,
,10.146002,-2.05E-11,,
,10.148002,-2.21E-11,,
,10.150002,-2.25E-11,,
,10.152002,-2.20E-11,,
,10.154002,-2.05E-11,,
,10.156002,-1.92E-11,,
,10.158002,-1.83E-11,,
,10.160002,-1.84E-11,,
,10.162002,-1.90E-11,,
,10.164002,-2.01E-11,,
,10.166002,-2.06E-11,,
,10.168002,-2.05E-11,,
,10.170002,-1.95E-11,,
,10.172002,-1.82E-11,,
,10.174002,-1.70E-11,,
,10.176002,-1.71E-11,,
,10.178002,-1.78E-11,,
,10.180002,-1.92E-11,,
,10.182002,-1.99E-11,,
,10.184002,-1.99E-11,,
,10.186002,-1.89E-11,,
,10.188002,-1.74E-11,,
,10.190002,-1.61E-11,,
,10.192002,-1.55E-11,,
,10.194002,-1.61E-11,,
,10.196002,-1.73E-11,,
,10.198002,-1.84E-11,,
,10.200002,-1.88E-11,,
,10.202002,-1.84E-11,,
,10.204002,-1.73E-11,,
,10.206002,-1.59E-11,,
,10.208002,-1.52E-11,,
,10.210002,-1.56E-11,,
,10.212002,-1.69E-11,,
,10.214002,-1.83E-11,,
,10.216002,-1.89E-11,,
,10.218002,-1.85E-11,,
,10.220002,-1.71E-11,,
,10.222002,-1.55E-11,,
,10.224002,-1.43E-11,,
,10.226002,-1.41E-11,,
,10.228002,-1.49E-11,,
,10.230002,-1.62E-11,,
,10.232002,-1.72E-11,,
,10.234002,-1.73E-11,,
,10.236002,-1.65E-11,,
,10.238002,-1.53E-11,,
,10.240002,-1.41E-11,,
,10.242002,-1.39E-11,,
,10.244002,-1.45E-11,,
,10.246002,-1.59E-11,,
,10.248002,-1.71E-11,,
,10.250002,-1.73E-11,,
,10.252002,-1.68E-11,,
,10.254002,-1.56E-11,,
,10.256002,-1.42E-11,,
,10.258002,-1.32E-11,,
,10.260002,-1.32E-11,,
,10.262002,-1.45E-11,,
,10.264002,-1.59E-11,,
,10.266002,-1.69E-11,,
,10.268002,-1.69E-11,,
,10.270002,-1.60E-11,,
,10.272002,-1.46E-11,,
,10.274002,-1.36E-11,,
,10.276002,-1.34E-11,,
,10.278002,-1.44E-11,,
,10.280002,-1.57E-11,,
,10.282002,-1.67E-11,,
,10.284002,-1.66E-11,,
,10.286002,-1.56E-11,,
,10.288002,-1.39E-11,,
,10.290002,-1.26E-11,,
,10.292002,-1.19E-11,,
,10.294002,-1.27E-11,,
,10.296002,-1.38E-11,,
,10.298002,-1.48E-11,,
,10.300002,-1.51E-11,,
,10.302002,-1.46E-11,,
,10.304002,-1.36E-11,,
,10.306002,-1.23E-11,,
,10.308002,-1.15E-11,,
,10.310002,-1.19E-11,,
,10.312002,-1.32E-11,,
,10.314002,-1.47E-11,,
,10.316002,-1.54E-11,,
,10.318002,-1.51E-11,,
,10.320002,-1.39E-11,,
,10.322002,-1.24E-11,,
,10.324002,-1.11E-11,,
,10.326002,-1.09E-11,,
,10.328002,-1.17E-11,,
,10.330002,-1.31E-11,,
,10.332002,-1.43E-11,,
,10.334002,-1.45E-11,,
,10.336002,-1.41E-11,,
,10.338002,-1.28E-11,,
,10.340002,-1.18E-11,,
,10.342002,-1.14E-11,,
,10.344002,-1.23E-11,,
,10.346002,-1.34E-11,,
,10.348002,-1.47E-11,,
,10.350002,-1.49E-11,,
,10.352002,-1.45E-11,,
,10.354002,-1.29E-11,,
,10.356002,-1.14E-11,,
,10.358002,-1.02E-11,,
,10.360002,-1.04E-11,,
,10.362002,-1.13E-11,,
,10.364002,-1.25E-11,,
,10.366002,-1.33E-11,,
,10.368002,-1.33E-11,,
,10.370002,-1.27E-11,,
,10.372002,-1.13E-11,,
,10.374002,-1.05E-11,,
,10.376002,-1.05E-11,,
,10.378002,-1.15E-11,,
,10.380002,-1.27E-11,,
,10.382002,-1.36E-11,,
,10.384002,-1.37E-11,,
,10.386002,-1.30E-11,,
,10.388002,-1.17E-11,,
,10.390002,-1.05E-11,,
,10.392002,-9.90E-12,,
,10.394002,-1.04E-11,,
,10.396002,-1.16E-11,,
,10.398002,-1.28E-11,,
,10.400002,-1.34E-11,,
,10.402002,-1.31E-11,,
,10.404002,-1.20E-11,,
,10.406002,-1.09E-11,,
,10.408002,-1.03E-11,,
,10.410002,-1.11E-11,,
,10.412002,-1.24E-11,,
,10.414002,-1.39E-11,,
,10.416002,-1.44E-11,,
,10.418002,-1.42E-11,,
,10.420002,-1.31E-11,,
,10.422002,-1.17E-11,,
,10.424002,-1.05E-11,,
,10.426002,-1.03E-11,,
,10.428002,-1.12E-11,,
,10.430002,-1.27E-11,,
,10.432002,-1.38E-11,,
,10.434002,-1.43E-11,,
,10.436002,-1.39E-11,,
,10.438002,-1.30E-11,,
,10.440002,-1.20E-11,,
,10.442002,-1.18E-11,,
,10.444002,-1.25E-11,,
,10.446002,-1.39E-11,,
,10.448002,-1.51E-11,,
,10.450002,-1.55E-11,,
,10.452002,-1.47E-11,,
,10.454002,-1.33E-11,,
,10.456002,-1.20E-11,,
,10.458002,-1.13E-11,,
,10.460002,-1.14E-11,,
,10.462002,-1.25E-11,,
,10.464002,-1.36E-11,,
,10.466002,-1.44E-11,,
,10.468002,-1.43E-11,,
,10.470002,-1.39E-11,,
,10.472002,-1.27E-11,,
,10.474002,-1.19E-11,,
,10.476002,-1.19E-11,,
,10.478002,-1.30E-11,,
,10.480002,-1.42E-11,,
,10.482002,-1.49E-11,,
,10.484002,-1.53E-11,,
,10.486002,-1.44E-11,,
,10.488002,-1.29E-11,,
,10.490002,-1.13E-11,,
,10.492002,-1.08E-11,,
,10.494002,-1.13E-11,,
,10.496002,-1.25E-11,,
,10.498002,-1.38E-11,,
,10.500002,-1.41E-11,,
,10.502002,-1.39E-11,,
,10.504002,-1.27E-11,,
,10.506002,-1.15E-11,,
,10.508002,-1.07E-11,,
,10.510002,-1.09E-11,,
,10.512002,-1.22E-11,,
,10.514002,-1.34E-11,,
,10.516002,-1.44E-11,,
,10.518002,-1.42E-11,,
,10.520002,-1.31E-11,,
,10.522002,-1.13E-11,,
,10.524002,-1.02E-11,,
,10.526002,-1.01E-11,,
,10.528002,-1.11E-11,,
,10.530002,-1.23E-11,,
,10.532002,-1.31E-11,,
,10.534002,-1.33E-11,,
,10.536002,-1.29E-11,,
,10.538002,-1.18E-11,,
,10.540002,-1.05E-11,,
,10.542002,-1.00E-11,,
,10.544002,-1.07E-11,,
,10.546002,-1.22E-11,,
,10.548002,-1.33E-11,,
,10.550002,-1.36E-11,,
,10.552002,-1.30E-11,,
,10.554002,-1.15E-11,,
,10.556002,-1.02E-11,,
,10.558002,-9.15E-12,,
,10.560002,-9.26E-12,,
,10.562002,-1.01E-11,,
,10.564002,-1.14E-11,,
,10.566002,-1.22E-11,,
,10.568002,-1.19E-11,,
,10.570002,-1.10E-11,,
,10.572002,-9.69E-12,,
,10.574002,-8.61E-12,,
,10.576002,-8.61E-12,,
,10.578002,-9.58E-12,,
,10.580002,-1.11E-11,,
,10.582002,-1.19E-11,,
,10.584002,-1.20E-11,,
,10.586002,-1.12E-11,,
,10.588002,-9.79E-12,,
,10.590002,-8.51E-12,,
,10.592002,-8.08E-12,,
,10.594002,-8.40E-12,,
,10.596002,-9.37E-12,,
,10.598002,-1.01E-11,,
,10.600002,-1.07E-11,,
,10.602002,-1.02E-11,,
,10.604002,-9.15E-12,,
,10.606002,-7.86E-12,,
,10.608002,-7.11E-12,,
,10.610002,-7.33E-12,,
,10.612002,-8.29E-12,,
,10.614002,-9.47E-12,,
,10.616002,-1.02E-11,,
,10.618002,-1.01E-11,,
,10.620002,-9.37E-12,,
,10.622002,-8.08E-12,,
,10.624002,-6.90E-12,,
,10.626002,-6.68E-12,,
,10.628002,-7.33E-12,,
,10.630002,-8.61E-12,,
,10.632002,-9.37E-12,,
,10.634002,-9.58E-12,,
,10.636002,-9.04E-12,,
,10.638002,-7.97E-12,,
,10.640002,-7.00E-12,,
,10.642002,-6.68E-12,,
,10.644002,-7.43E-12,,
,10.646002,-8.83E-12,,
,10.648002,-1.01E-11,,
,10.650002,-1.07E-11,,
,10.652002,-1.03E-11,,
,10.654002,-8.94E-12,,
,10.656002,-7.43E-12,,
,10.658002,-6.25E-12,,
,10.660002,-6.57E-12,,
,10.662002,-7.75E-12,,
,10.664002,-9.04E-12,,
,10.666002,-9.79E-12,,
,10.668002,-9.79E-12,,
,10.670002,-9.04E-12,,
,10.672002,-7.75E-12,,
,10.674002,-6.57E-12,,
,10.676002,-6.57E-12,,
,10.678002,-7.43E-12,,
,10.680002,-9.04E-12,,
,10.682002,-1.01E-11,,
,10.684002,-1.05E-11,,
,10.686002,-9.69E-12,,
,10.688002,-8.29E-12,,
,10.690002,-7.00E-12,,
,10.692002,-6.47E-12,,
,10.694002,-7.22E-12,,
,10.696002,-8.29E-12,,
,10.698002,-9.47E-12,,
,10.700002,-9.79E-12,,
,10.702002,-9.37E-12,,
,10.704002,-8.29E-12,,
,10.706002,-7.00E-12,,
,10.708002,-6.47E-12,,
,10.710002,-6.79E-12,,
,10.712002,-8.08E-12,,
,10.714002,-9.15E-12,,
,10.716002,-9.69E-12,,
,10.718002,-9.26E-12,,
,10.720002,-8.18E-12,,
,10.722002,-6.79E-12,,
,10.724002,-5.61E-12,,
,10.726002,-5.61E-12,,
,10.728002,-6.47E-12,,
,10.730002,-7.75E-12,,
,10.732002,-8.51E-12,,
,10.734002,-8.51E-12,,
,10.736002,-7.65E-12,,
,10.738002,-6.47E-12,,
,10.740002,-5.07E-12,,
,10.742002,-4.53E-12,,
,10.744002,-4.86E-12,,
,10.746002,-6.14E-12,,
,10.748002,-7.43E-12,,
,10.750002,-7.75E-12,,
,10.752002,-7.22E-12,,
,10.754002,-6.14E-12,,
,10.756002,-4.64E-12,,
,10.758002,-3.68E-12,,
,10.760002,-3.46E-12,,
,10.762002,-4.64E-12,,
,10.764002,-5.93E-12,,
,10.766002,-6.47E-12,,
,10.768002,-6.25E-12,,
,10.770002,-5.29E-12,,
,10.772002,-4.21E-12,,
,10.774002,-3.14E-12,,
,10.776002,-3.03E-12,,
,10.778002,-4.00E-12,,
,10.780002,-5.50E-12,,
,10.782002,-6.47E-12,,
,10.784002,-6.47E-12,,
,10.786002,-5.29E-12,,
,10.788002,-3.89E-12,,
,10.790002,-2.49E-12,,
,10.792002,-1.96E-12,,
,10.794002,-2.49E-12,,
,10.796002,-3.78E-12,,
,10.798002,-5.18E-12,,
,10.800002,-5.61E-12,,
,10.802002,-5.07E-12,,
,10.804002,-4.10E-12,,
,10.806002,-2.92E-12,,
,10.808002,-2.60E-12,,
,10.810002,-3.03E-12,,
,10.812002,-4.64E-12,,
,10.814002,-6.04E-12,,
,10.816002,-7.00E-12,,
,10.818002,-6.79E-12,,
,10.820002,-5.93E-12,,
,10.822002,-4.32E-12,,
,10.824002,-3.25E-12,,
,10.826002,-2.92E-12,,
,10.828002,-3.68E-12,,
,10.830002,-4.96E-12,,
,10.832002,-5.82E-12,,
,10.834002,-6.36E-12,,
,10.836002,-5.82E-12,,
,10.838002,-5.07E-12,,
,10.840002,-3.89E-12,,
,10.842002,-3.46E-12,,
,10.844002,-4.00E-12,,
,10.846002,-5.61E-12,,
,10.848002,-6.90E-12,,
,10.850002,-7.33E-12,,
,10.852002,-6.90E-12,,
,10.854002,-5.82E-12,,
,10.856002,-4.53E-12,,
,10.858002,-3.46E-12,,
,10.860002,-3.57E-12,,
,10.862002,-4.64E-12,,
,10.864002,-5.82E-12,,
,10.866002,-6.57E-12,,
,10.868002,-6.47E-12,,
,10.870002,-5.72E-12,,
,10.872002,-4.43E-12,,
,10.874002,-3.57E-12,,
,10.876002,-4.00E-12,,
,10.878002,-5.50E-12,,
,10.880002,-7.11E-12,,
,10.882002,-8.08E-12,,
,10.884002,-8.29E-12,,
,10.886002,-7.54E-12,,
,10.888002,-6.14E-12,,
,10.890002,-4.53E-12,,
,10.892002,-3.89E-12,,
,10.894002,-4.10E-12,,
,10.896002,-5.07E-12,,
,10.898002,-6.04E-12,,
,10.900002,-6.57E-12,,
,10.902002,-6.14E-12,,
,10.904002,-4.96E-12,,
,10.906002,-3.57E-12,,
,10.908002,-2.82E-12,,
,10.910002,-3.25E-12,,
,10.912002,-4.75E-12,,
,10.914002,-6.36E-12,,
,10.916002,-7.43E-12,,
,10.918002,-7.22E-12,,
,10.920002,-6.04E-12,,
,10.922002,-4.43E-12,,
,10.924002,-3.14E-12,,
,10.926002,-3.03E-12,,
,10.928002,-4.00E-12,,
,10.930002,-5.39E-12,,
,10.932002,-6.25E-12,,
,10.934002,-6.14E-12,,
,10.936002,-5.29E-12,,
,10.938002,-4.10E-12,,
,10.940002,-3.14E-12,,
,10.942002,-2.92E-12,,
,10.944002,-3.68E-12,,
,10.946002,-4.75E-12,,
,10.948002,-5.93E-12,,
,10.950002,-6.36E-12,,
,10.952002,-5.82E-12,,
,10.954002,-4.64E-12,,
,10.956002,-3.14E-12,,
,10.958002,-2.28E-12,,
,10.960002,-2.28E-12,,
,10.962002,-3.25E-12,,
,10.964002,-4.53E-12,,
,10.966002,-5.18E-12,,
,10.968002,-4.96E-12,,
,10.970002,-3.78E-12,,
,10.972002,-2.60E-12,,
,10.974002,-1.74E-12,,
,10.976002,-1.96E-12,,
,10.978002,-2.82E-12,,
,10.980002,-4.10E-12,,
,10.982002,-4.96E-12,,
,10.984002,-5.07E-12,,
,10.986002,-4.10E-12,,
,10.988002,-2.82E-12,,
,10.990002,-1.21E-12,,
,10.992002,-5.62E-13,,
,10.994002,-8.84E-13,,
,10.996002,-2.39E-12,,
,10.998002,-3.78E-12,,
,11.000002,-4.10E-12,,
,11.002002,-3.57E-12,,
,11.004002,-2.39E-12,,
,11.006002,-1.31E-12,,
,11.008002,-4.55E-13,,
,11.010002,-8.84E-13,,
,11.012002,-2.17E-12,,
,11.014002,-3.78E-12,,
,11.016002,-4.75E-12,,
,11.018002,-4.64E-12,,
,11.020002,-3.78E-12,,
,11.022002,-2.28E-12,,
,11.024002,-1.10E-12,,
,11.026002,-7.77E-13,,
,11.028002,-1.53E-12,,
,11.030002,-2.92E-12,,
,11.032002,-3.78E-12,,
,11.034002,-4.21E-12,,
,11.036002,-3.78E-12,,
,11.038002,-2.82E-12,,
,11.040002,-1.74E-12,,
