5/16/2019, 2:53:09 PM ,,,
 Current Sensitivity ,1.00E-09,,,
 This file comes from It only measurement ,0.00E+00,,,
 Sampling rate ,500,,,
 Number of samples per channel ,-1,,,
 No filter from Labview , , , ,
 , ,,,
 ***End_of_Header*** ,,,,
 , Time , Current , Filtered Current , 
,0.001004,-2.62E-11,,
,0.003004,-5.24E-11,,
,0.005004,-7.83E-11,,
,0.007004,-7.81E-11,,
,0.009004,-7.79E-11,,
,0.011004,-7.78E-11,,
,0.013004,-7.75E-11,,
,0.015004,-7.73E-11,,
,0.017004,-7.69E-11,,
,0.019004,-7.67E-11,,
,0.021004,-7.67E-11,,
,0.023004,-7.69E-11,,
,0.025004,-7.72E-11,,
,0.027004,-7.75E-11,,
,0.029004,-7.82E-11,,
,0.031004,-7.85E-11,,
,0.033004,-7.82E-11,,
,0.035004,-7.78E-11,,
,0.037004,-7.72E-11,,
,0.039004,-7.72E-11,,
,0.041004,-7.71E-11,,
,0.043004,-7.72E-11,,
,0.045004,-7.75E-11,,
,0.047004,-7.79E-11,,
,0.049004,-7.79E-11,,
,0.051004,-7.79E-11,,
,0.053004,-7.81E-11,,
,0.055004,-7.87E-11,,
,0.057004,-7.96E-11,,
,0.059004,-8.03E-11,,
,0.061004,-8.13E-11,,
,0.063004,-8.20E-11,,
,0.065004,-8.28E-11,,
,0.067004,-8.31E-11,,
,0.069004,-8.32E-11,,
,0.071004,-8.32E-11,,
,0.073004,-8.33E-11,,
,0.075004,-8.34E-11,,
,0.077004,-8.40E-11,,
,0.079004,-8.40E-11,,
,0.081004,-8.44E-11,,
,0.083004,-8.46E-11,,
,0.085004,-8.56E-11,,
,0.087004,-8.66E-11,,
,0.089004,-8.77E-11,,
,0.091004,-8.87E-11,,
,0.093004,-8.96E-11,,
,0.095004,-9.02E-11,,
,0.097004,-9.07E-11,,
,0.099004,-9.08E-11,,
,0.101004,-9.05E-11,,
,0.103004,-9.01E-11,,
,0.105004,-8.97E-11,,
,0.107004,-8.96E-11,,
,0.109004,-8.98E-11,,
,0.111004,-9.02E-11,,
,0.113004,-9.08E-11,,
,0.115004,-9.14E-11,,
,0.117004,-9.17E-11,,
,0.119004,-9.19E-11,,
,0.121004,-9.20E-11,,
,0.123004,-9.24E-11,,
,0.125004,-9.26E-11,,
,0.127004,-9.29E-11,,
,0.129004,-9.30E-11,,
,0.131004,-9.30E-11,,
,0.133004,-9.27E-11,,
,0.135004,-9.22E-11,,
,0.137004,-9.18E-11,,
,0.139004,-9.13E-11,,
,0.141004,-9.10E-11,,
,0.143004,-9.04E-11,,
,0.145004,-9.03E-11,,
,0.147004,-9.01E-11,,
,0.149004,-9.02E-11,,
,0.151004,-9.03E-11,,
,0.153004,-9.05E-11,,
,0.155004,-9.08E-11,,
,0.157004,-9.12E-11,,
,0.159004,-9.16E-11,,
,0.161004,-9.19E-11,,
,0.163004,-9.20E-11,,
,0.165004,-9.14E-11,,
,0.167004,-9.05E-11,,
,0.169004,-8.93E-11,,
,0.171004,-8.86E-11,,
,0.173004,-8.75E-11,,
,0.175004,-8.71E-11,,
,0.177004,-8.68E-11,,
,0.179004,-8.69E-11,,
,0.181004,-8.69E-11,,
,0.183004,-8.69E-11,,
,0.185004,-8.70E-11,,
,0.187004,-8.70E-11,,
,0.189004,-8.71E-11,,
,0.191004,-8.72E-11,,
,0.193004,-8.74E-11,,
,0.195004,-8.76E-11,,
,0.197004,-8.76E-11,,
,0.199004,-8.73E-11,,
,0.201004,-8.66E-11,,
,0.203004,-8.56E-11,,
,0.205004,-8.45E-11,,
,0.207004,-8.35E-11,,
,0.209004,-8.27E-11,,
,0.211004,-8.20E-11,,
,0.213004,-8.17E-11,,
,0.215004,-8.15E-11,,
,0.217004,-8.17E-11,,
,0.219004,-8.22E-11,,
,0.221004,-8.30E-11,,
,0.223004,-8.37E-11,,
,0.225004,-8.44E-11,,
,0.227004,-8.47E-11,,
,0.229004,-8.47E-11,,
,0.231004,-8.41E-11,,
,0.233004,-8.28E-11,,
,0.235004,-8.14E-11,,
,0.237004,-7.96E-11,,
,0.239004,-7.83E-11,,
,0.241004,-7.72E-11,,
,0.243004,-7.72E-11,,
,0.245004,-7.78E-11,,
,0.247004,-7.87E-11,,
,0.249004,-7.97E-11,,
,0.251004,-8.06E-11,,
,0.253004,-8.14E-11,,
,0.255004,-8.19E-11,,
,0.257004,-8.23E-11,,
,0.259004,-8.25E-11,,
,0.261004,-8.23E-11,,
,0.263004,-8.17E-11,,
,0.265004,-8.08E-11,,
,0.267004,-7.98E-11,,
,0.269004,-7.93E-11,,
,0.271004,-7.89E-11,,
,0.273004,-7.90E-11,,
,0.275004,-7.93E-11,,
,0.277004,-8.01E-11,,
,0.279004,-8.12E-11,,
,0.281004,-8.22E-11,,
,0.283004,-8.27E-11,,
,0.285004,-8.28E-11,,
,0.287004,-8.26E-11,,
,0.289004,-8.26E-11,,
,0.291004,-8.27E-11,,
,0.293004,-8.29E-11,,
,0.295004,-8.32E-11,,
,0.297004,-8.34E-11,,
,0.299004,-8.40E-11,,
,0.301004,-8.41E-11,,
,0.303004,-8.43E-11,,
,0.305004,-8.42E-11,,
,0.307004,-8.40E-11,,
,0.309004,-8.39E-11,,
,0.311004,-8.40E-11,,
,0.313004,-8.43E-11,,
,0.315004,-8.45E-11,,
,0.317004,-8.45E-11,,
,0.319004,-8.45E-11,,
,0.321004,-8.47E-11,,
,0.323004,-8.49E-11,,
,0.325004,-8.54E-11,,
,0.327004,-8.59E-11,,
,0.329004,-8.64E-11,,
,0.331004,-8.67E-11,,
,0.333004,-8.62E-11,,
,0.335004,-8.57E-11,,
,0.337004,-8.52E-11,,
,0.339004,-8.47E-11,,
,0.341004,-8.42E-11,,
,0.343004,-8.38E-11,,
,0.345004,-8.37E-11,,
,0.347004,-8.37E-11,,
,0.349004,-8.37E-11,,
,0.351004,-8.37E-11,,
,0.353004,-8.39E-11,,
,0.355004,-8.44E-11,,
,0.357004,-8.48E-11,,
,0.359004,-8.53E-11,,
,0.361004,-8.55E-11,,
,0.363004,-8.55E-11,,
,0.365004,-8.51E-11,,
,0.367004,-8.42E-11,,
,0.369004,-8.33E-11,,
,0.371004,-8.27E-11,,
,0.373004,-8.23E-11,,
,0.375004,-8.23E-11,,
,0.377004,-8.25E-11,,
,0.379004,-8.30E-11,,
,0.381004,-8.33E-11,,
,0.383004,-8.35E-11,,
,0.385004,-8.35E-11,,
,0.387004,-8.37E-11,,
,0.389004,-8.37E-11,,
,0.391004,-8.35E-11,,
,0.393004,-8.35E-11,,
,0.395004,-8.37E-11,,
,0.397004,-8.38E-11,,
,0.399004,-8.34E-11,,
,0.401004,-8.32E-11,,
,0.403004,-8.30E-11,,
,0.405004,-8.29E-11,,
,0.407004,-8.29E-11,,
,0.409004,-8.29E-11,,
,0.411004,-8.27E-11,,
,0.413004,-8.25E-11,,
,0.415004,-8.20E-11,,
,0.417004,-8.16E-11,,
,0.419004,-8.12E-11,,
,0.421004,-8.10E-11,,
,0.423004,-8.13E-11,,
,0.425004,-8.18E-11,,
,0.427004,-8.26E-11,,
,0.429004,-8.33E-11,,
,0.431004,-8.33E-11,,
,0.433004,-8.30E-11,,
,0.435004,-8.22E-11,,
,0.437004,-8.14E-11,,
,0.439004,-8.05E-11,,
,0.441004,-7.98E-11,,
,0.443004,-7.93E-11,,
,0.445004,-7.93E-11,,
,0.447004,-7.95E-11,,
,0.449004,-7.97E-11,,
,0.451004,-7.99E-11,,
,0.453004,-8.01E-11,,
,0.455004,-8.05E-11,,
,0.457004,-8.11E-11,,
,0.459004,-8.19E-11,,
,0.461004,-8.28E-11,,
,0.463004,-8.35E-11,,
,0.465004,-8.39E-11,,
,0.467004,-8.39E-11,,
,0.469004,-8.37E-11,,
,0.471004,-8.33E-11,,
,0.473004,-8.30E-11,,
,0.475004,-8.27E-11,,
,0.477004,-8.28E-11,,
,0.479004,-8.30E-11,,
,0.481004,-8.33E-11,,
,0.483004,-8.38E-11,,
,0.485004,-8.43E-11,,
,0.487004,-8.53E-11,,
,0.489004,-8.63E-11,,
,0.491004,-8.77E-11,,
,0.493004,-8.89E-11,,
,0.495004,-8.98E-11,,
,0.497004,-9.03E-11,,
,0.499004,-9.01E-11,,
,0.501004,-8.97E-11,,
,0.503004,-8.88E-11,,
,0.505004,-8.86E-11,,
,0.507004,-8.85E-11,,
,0.509004,-8.86E-11,,
,0.511004,-8.87E-11,,
,0.513004,-8.91E-11,,
,0.515004,-8.98E-11,,
,0.517004,-9.05E-11,,
,0.519004,-9.13E-11,,
,0.521004,-9.21E-11,,
,0.523004,-9.27E-11,,
,0.525004,-9.32E-11,,
,0.527004,-9.36E-11,,
,0.529004,-9.42E-11,,
,0.531004,-9.43E-11,,
,0.533004,-9.43E-11,,
,0.535004,-9.40E-11,,
,0.537004,-9.39E-11,,
,0.539004,-9.37E-11,,
,0.541004,-9.40E-11,,
,0.543004,-9.46E-11,,
,0.545004,-9.54E-11,,
,0.547004,-9.60E-11,,
,0.549004,-9.61E-11,,
,0.551004,-9.61E-11,,
,0.553004,-9.62E-11,,
,0.555004,-9.64E-11,,
,0.557004,-9.70E-11,,
,0.559004,-9.76E-11,,
,0.561004,-9.81E-11,,
,0.563004,-9.86E-11,,
,0.565004,-9.86E-11,,
,0.567004,-9.87E-11,,
,0.569004,-9.86E-11,,
,0.571004,-9.86E-11,,
,0.573004,-9.85E-11,,
,0.575004,-9.84E-11,,
,0.577004,-9.87E-11,,
,0.579004,-9.90E-11,,
,0.581004,-9.93E-11,,
,0.583004,-9.91E-11,,
,0.585004,-9.89E-11,,
,0.587004,-9.88E-11,,
,0.589004,-9.85E-11,,
,0.591004,-9.83E-11,,
,0.593004,-9.81E-11,,
,0.595004,-9.87E-11,,
,0.597004,-9.90E-11,,
,0.599004,-9.91E-11,,
,0.601004,-9.89E-11,,
,0.603004,-9.86E-11,,
,0.605004,-9.84E-11,,
,0.607004,-9.80E-11,,
,0.609004,-9.77E-11,,
,0.611004,-9.73E-11,,
,0.613004,-9.66E-11,,
,0.615004,-9.60E-11,,
,0.617004,-9.49E-11,,
,0.619004,-9.44E-11,,
,0.621004,-9.40E-11,,
,0.623004,-9.41E-11,,
,0.625004,-9.43E-11,,
,0.627004,-9.48E-11,,
,0.629004,-9.55E-11,,
,0.631004,-9.56E-11,,
,0.633004,-9.53E-11,,
,0.635004,-9.44E-11,,
,0.637004,-9.36E-11,,
,0.639004,-9.25E-11,,
,0.641004,-9.14E-11,,
,0.643004,-9.03E-11,,
,0.645004,-8.97E-11,,
,0.647004,-8.92E-11,,
,0.649004,-8.88E-11,,
,0.651004,-8.86E-11,,
,0.653004,-8.82E-11,,
,0.655004,-8.79E-11,,
,0.657004,-8.74E-11,,
,0.659004,-8.74E-11,,
,0.661004,-8.73E-11,,
,0.663004,-8.73E-11,,
,0.665004,-8.66E-11,,
,0.667004,-8.58E-11,,
,0.669004,-8.51E-11,,
,0.671004,-8.46E-11,,
,0.673004,-8.39E-11,,
,0.675004,-8.31E-11,,
,0.677004,-8.23E-11,,
,0.679004,-8.16E-11,,
,0.681004,-8.10E-11,,
,0.683004,-8.04E-11,,
,0.685004,-8.00E-11,,
,0.687004,-7.98E-11,,
,0.689004,-7.99E-11,,
,0.691004,-8.02E-11,,
,0.693004,-8.08E-11,,
,0.695004,-8.12E-11,,
,0.697004,-8.12E-11,,
,0.699004,-8.09E-11,,
,0.701004,-8.00E-11,,
,0.703004,-7.93E-11,,
,0.705004,-7.84E-11,,
,0.707004,-7.79E-11,,
,0.709004,-7.76E-11,,
,0.711004,-7.76E-11,,
,0.713004,-7.79E-11,,
,0.715004,-7.78E-11,,
,0.717004,-7.75E-11,,
,0.719004,-7.72E-11,,
,0.721004,-7.71E-11,,
,0.723004,-7.72E-11,,
,0.725004,-7.75E-11,,
,0.727004,-7.81E-11,,
,0.729004,-7.87E-11,,
,0.731004,-7.90E-11,,
,0.733004,-7.91E-11,,
,0.735004,-7.88E-11,,
,0.737004,-7.84E-11,,
,0.739004,-7.76E-11,,
,0.741004,-7.70E-11,,
,0.743004,-7.66E-11,,
,0.745004,-7.62E-11,,
,0.747004,-7.59E-11,,
,0.749004,-7.56E-11,,
,0.751004,-7.57E-11,,
,0.753004,-7.61E-11,,
,0.755004,-7.69E-11,,
,0.757004,-7.75E-11,,
,0.759004,-7.85E-11,,
,0.761004,-7.94E-11,,
,0.763004,-8.00E-11,,
,0.765004,-8.00E-11,,
,0.767004,-7.96E-11,,
,0.769004,-7.89E-11,,
,0.771004,-7.82E-11,,
,0.773004,-7.71E-11,,
,0.775004,-7.65E-11,,
,0.777004,-7.59E-11,,
,0.779004,-7.59E-11,,
,0.781004,-7.61E-11,,
,0.783004,-7.66E-11,,
,0.785004,-7.74E-11,,
,0.787004,-7.81E-11,,
,0.789004,-7.90E-11,,
,0.791004,-7.98E-11,,
,0.793004,-8.06E-11,,
,0.795004,-8.11E-11,,
,0.797004,-8.10E-11,,
,0.799004,-8.06E-11,,
,0.801004,-7.97E-11,,
,0.803004,-7.88E-11,,
,0.805004,-7.79E-11,,
,0.807004,-7.75E-11,,
,0.809004,-7.73E-11,,
,0.811004,-7.72E-11,,
,0.813004,-7.74E-11,,
,0.815004,-7.78E-11,,
,0.817004,-7.83E-11,,
,0.819004,-7.90E-11,,
,0.821004,-8.02E-11,,
,0.823004,-8.13E-11,,
,0.825004,-8.20E-11,,
,0.827004,-8.25E-11,,
,0.829004,-8.26E-11,,
,0.831004,-8.22E-11,,
,0.833004,-8.14E-11,,
,0.835004,-8.04E-11,,
,0.837004,-7.96E-11,,
,0.839004,-7.88E-11,,
,0.841004,-7.86E-11,,
,0.843004,-7.88E-11,,
,0.845004,-7.95E-11,,
,0.847004,-8.03E-11,,
,0.849004,-8.11E-11,,
,0.851004,-8.15E-11,,
,0.853004,-8.19E-11,,
,0.855004,-8.20E-11,,
,0.857004,-8.24E-11,,
,0.859004,-8.25E-11,,
,0.861004,-8.30E-11,,
,0.863004,-8.32E-11,,
,0.865004,-8.33E-11,,
,0.867004,-8.30E-11,,
,0.869004,-8.30E-11,,
,0.871004,-8.29E-11,,
,0.873004,-8.27E-11,,
,0.875004,-8.24E-11,,
,0.877004,-8.22E-11,,
,0.879004,-8.24E-11,,
,0.881004,-8.25E-11,,
,0.883004,-8.27E-11,,
,0.885004,-8.29E-11,,
,0.887004,-8.35E-11,,
,0.889004,-8.42E-11,,
,0.891004,-8.52E-11,,
,0.893004,-8.59E-11,,
,0.895004,-8.68E-11,,
,0.897004,-8.71E-11,,
,0.899004,-8.70E-11,,
,0.901004,-8.63E-11,,
,0.903004,-8.55E-11,,
,0.905004,-8.45E-11,,
,0.907004,-8.39E-11,,
,0.909004,-8.37E-11,,
,0.911004,-8.39E-11,,
,0.913004,-8.43E-11,,
,0.915004,-8.48E-11,,
,0.917004,-8.54E-11,,
,0.919004,-8.60E-11,,
,0.921004,-8.69E-11,,
,0.923004,-8.76E-11,,
,0.925004,-8.83E-11,,
,0.927004,-8.87E-11,,
,0.929004,-8.90E-11,,
,0.931004,-8.90E-11,,
,0.933004,-8.84E-11,,
,0.935004,-8.77E-11,,
,0.937004,-8.69E-11,,
,0.939004,-8.62E-11,,
,0.941004,-8.54E-11,,
,0.943004,-8.52E-11,,
,0.945004,-8.54E-11,,
,0.947004,-8.60E-11,,
,0.949004,-8.67E-11,,
,0.951004,-8.73E-11,,
,0.953004,-8.82E-11,,
,0.955004,-8.86E-11,,
,0.957004,-8.91E-11,,
,0.959004,-8.93E-11,,
,0.961004,-8.96E-11,,
,0.963004,-8.93E-11,,
,0.965004,-8.86E-11,,
,0.967004,-8.75E-11,,
,0.969004,-8.63E-11,,
,0.971004,-8.55E-11,,
,0.973004,-8.46E-11,,
,0.975004,-8.41E-11,,
,0.977004,-8.41E-11,,
,0.979004,-8.47E-11,,
,0.981004,-8.53E-11,,
,0.983004,-8.55E-11,,
,0.985004,-8.54E-11,,
,0.987004,-8.53E-11,,
,0.989004,-8.48E-11,,
,0.991004,-8.43E-11,,
,0.993004,-8.39E-11,,
,0.995004,-8.35E-11,,
,0.997004,-8.32E-11,,
,0.999004,-8.27E-11,,
,1.001004,-8.24E-11,,
,1.003004,-8.23E-11,,
,1.005004,-8.22E-11,,
,1.007004,-8.22E-11,,
,1.009004,-8.19E-11,,
,1.011004,-8.17E-11,,
,1.013004,-8.11E-11,,
,1.015004,-8.03E-11,,
,1.017004,-7.94E-11,,
,1.019004,-7.88E-11,,
,1.021004,-7.85E-11,,
,1.023004,-7.86E-11,,
,1.025004,-7.88E-11,,
,1.027004,-7.97E-11,,
,1.029004,-8.04E-11,,
,1.031004,-8.10E-11,,
,1.033004,-8.08E-11,,
,1.035004,-8.06E-11,,
,1.037004,-8.02E-11,,
,1.039004,-7.96E-11,,
,1.041004,-7.89E-11,,
,1.043004,-7.82E-11,,
,1.045004,-7.78E-11,,
,1.047004,-7.72E-11,,
,1.049004,-7.71E-11,,
,1.051004,-7.72E-11,,
,1.053004,-7.72E-11,,
,1.055004,-7.76E-11,,
,1.057004,-7.82E-11,,
,1.059004,-7.90E-11,,
,1.061004,-8.02E-11,,
,1.063004,-8.12E-11,,
,1.065004,-8.20E-11,,
,1.067004,-8.22E-11,,
,1.069004,-8.20E-11,,
,1.071004,-8.19E-11,,
,1.073004,-8.17E-11,,
,1.075004,-8.17E-11,,
,1.077004,-8.16E-11,,
,1.079004,-8.16E-11,,
,1.081004,-8.16E-11,,
,1.083004,-8.15E-11,,
,1.085004,-8.17E-11,,
,1.087004,-8.24E-11,,
,1.089004,-8.32E-11,,
,1.091004,-8.43E-11,,
,1.093004,-8.54E-11,,
,1.095004,-8.67E-11,,
,1.097004,-8.76E-11,,
,1.099004,-8.78E-11,,
,1.101004,-8.77E-11,,
,1.103004,-8.73E-11,,
,1.105004,-8.70E-11,,
,1.107004,-8.66E-11,,
,1.109004,-8.60E-11,,
,1.111004,-8.58E-11,,
,1.113004,-8.57E-11,,
,1.115004,-8.59E-11,,
,1.117004,-8.62E-11,,
,1.119004,-8.70E-11,,
,1.121004,-8.79E-11,,
,1.123004,-8.90E-11,,
,1.125004,-9.02E-11,,
,1.127004,-9.11E-11,,
,1.129004,-9.18E-11,,
,1.131004,-9.19E-11,,
,1.133004,-9.15E-11,,
,1.135004,-9.06E-11,,
,1.137004,-9.00E-11,,
,1.139004,-8.92E-11,,
,1.141004,-8.86E-11,,
,1.143004,-8.83E-11,,
,1.145004,-8.85E-11,,
,1.147004,-8.89E-11,,
,1.149004,-8.88E-11,,
,1.151004,-8.90E-11,,
,1.153004,-8.91E-11,,
,1.155004,-8.96E-11,,
,1.157004,-8.99E-11,,
,1.159004,-9.03E-11,,
,1.161004,-9.07E-11,,
,1.163004,-9.08E-11,,
,1.165004,-9.08E-11,,
,1.167004,-9.02E-11,,
,1.169004,-8.99E-11,,
,1.171004,-8.91E-11,,
,1.173004,-8.87E-11,,
,1.175004,-8.79E-11,,
,1.177004,-8.76E-11,,
,1.179004,-8.74E-11,,
,1.181004,-8.76E-11,,
,1.183004,-8.76E-11,,
,1.185004,-8.75E-11,,
,1.187004,-8.75E-11,,
,1.189004,-8.77E-11,,
,1.191004,-8.79E-11,,
,1.193004,-8.77E-11,,
,1.195004,-8.74E-11,,
,1.197004,-8.70E-11,,
,1.199004,-8.62E-11,,
,1.201004,-8.53E-11,,
,1.203004,-8.43E-11,,
,1.205004,-8.34E-11,,
,1.207004,-8.28E-11,,
,1.209004,-8.24E-11,,
,1.211004,-8.17E-11,,
,1.213004,-8.13E-11,,
,1.215004,-8.05E-11,,
,1.217004,-7.97E-11,,
,1.219004,-7.85E-11,,
,1.221004,-7.76E-11,,
,1.223004,-7.71E-11,,
,1.225004,-7.67E-11,,
,1.227004,-7.64E-11,,
,1.229004,-7.60E-11,,
,1.231004,-7.55E-11,,
,1.233004,-7.45E-11,,
,1.235004,-7.37E-11,,
,1.237004,-7.27E-11,,
,1.239004,-7.17E-11,,
,1.241004,-7.05E-11,,
,1.243004,-6.93E-11,,
,1.245004,-6.83E-11,,
,1.247004,-6.72E-11,,
,1.249004,-6.62E-11,,
,1.251004,-6.48E-11,,
,1.253004,-6.38E-11,,
,1.255004,-6.33E-11,,
,1.257004,-6.29E-11,,
,1.259004,-6.30E-11,,
,1.261004,-6.27E-11,,
,1.263004,-6.25E-11,,
,1.265004,-6.15E-11,,
,1.267004,-6.04E-11,,
,1.269004,-5.90E-11,,
,1.271004,-5.79E-11,,
,1.273004,-5.69E-11,,
,1.275004,-5.59E-11,,
,1.277004,-5.48E-11,,
,1.279004,-5.40E-11,,
,1.281004,-5.32E-11,,
,1.283004,-5.23E-11,,
,1.285004,-5.16E-11,,
,1.287004,-5.09E-11,,
,1.289004,-5.07E-11,,
,1.291004,-5.04E-11,,
,1.293004,-5.06E-11,,
,1.295004,-5.06E-11,,
,1.297004,-5.07E-11,,
,1.299004,-5.02E-11,,
,1.301004,-4.92E-11,,
,1.303004,-4.81E-11,,
,1.305004,-4.73E-11,,
,1.307004,-4.65E-11,,
,1.309004,-4.57E-11,,
,1.311004,-4.50E-11,,
,1.313004,-4.40E-11,,
,1.315004,-4.32E-11,,
,1.317004,-4.22E-11,,
,1.319004,-4.18E-11,,
,1.321004,-4.14E-11,,
,1.323004,-4.13E-11,,
,1.325004,-4.14E-11,,
,1.327004,-4.18E-11,,
,1.329004,-4.21E-11,,
,1.331004,-4.20E-11,,
,1.333004,-4.15E-11,,
,1.335004,-4.05E-11,,
,1.337004,-3.92E-11,,
,1.339004,-3.77E-11,,
,1.341004,-3.62E-11,,
,1.343004,-3.49E-11,,
,1.345004,-3.36E-11,,
,1.347004,-3.24E-11,,
,1.349004,-3.16E-11,,
,1.351004,-3.09E-11,,
,1.353004,-3.08E-11,,
,1.355004,-3.11E-11,,
,1.357004,-3.15E-11,,
,1.359004,-3.18E-11,,
,1.361004,-3.21E-11,,
,1.363004,-3.22E-11,,
,1.365004,-3.19E-11,,
,1.367004,-3.08E-11,,
,1.369004,-2.92E-11,,
,1.371004,-2.75E-11,,
,1.373004,-2.59E-11,,
,1.375004,-2.45E-11,,
,1.377004,-2.31E-11,,
,1.379004,-2.19E-11,,
,1.381004,-2.11E-11,,
,1.383004,-2.03E-11,,
,1.385004,-1.98E-11,,
,1.387004,-1.93E-11,,
,1.389004,-1.91E-11,,
,1.391004,-1.90E-11,,
,1.393004,-1.88E-11,,
,1.395004,-1.87E-11,,
,1.397004,-1.82E-11,,
,1.399004,-1.73E-11,,
,1.401004,-1.60E-11,,
,1.403004,-1.47E-11,,
,1.405004,-1.33E-11,,
,1.407004,-1.18E-11,,
,1.409004,-1.01E-11,,
,1.411004,-8.51E-12,,
,1.413004,-7.33E-12,,
,1.415004,-6.14E-12,,
,1.417004,-5.18E-12,,
,1.419004,-4.21E-12,,
,1.421004,-3.35E-12,,
,1.423004,-3.14E-12,,
,1.425004,-2.82E-12,,
,1.427004,-2.49E-12,,
,1.429004,-1.74E-12,,
,1.431004,-7.77E-13,,
,1.433004,2.97E-13,,
,1.435004,2.23E-12,,
,1.437004,4.27E-12,,
,1.439004,6.42E-12,,
,1.441004,8.13E-12,,
,1.443004,9.64E-12,,
,1.445004,1.06E-11,,
,1.447004,1.14E-11,,
,1.449004,1.21E-11,,
,1.451004,1.29E-11,,
,1.453004,1.35E-11,,
,1.455004,1.39E-11,,
,1.457004,1.44E-11,,
,1.459004,1.51E-11,,
,1.461004,1.59E-11,,
,1.463004,1.66E-11,,
,1.465004,1.76E-11,,
,1.467004,1.90E-11,,
,1.469004,2.04E-11,,
,1.471004,2.13E-11,,
,1.473004,2.22E-11,,
,1.475004,2.31E-11,,
,1.477004,2.39E-11,,
,1.479004,2.47E-11,,
,1.481004,2.55E-11,,
,1.483004,2.64E-11,,
,1.485004,2.71E-11,,
,1.487004,2.76E-11,,
,1.489004,2.79E-11,,
,1.491004,2.79E-11,,
,1.493004,2.80E-11,,
,1.495004,2.80E-11,,
,1.497004,2.81E-11,,
,1.499004,2.85E-11,,
,1.501004,2.92E-11,,
,1.503004,3.01E-11,,
,1.505004,3.10E-11,,
,1.507004,3.16E-11,,
,1.509004,3.22E-11,,
,1.511004,3.26E-11,,
,1.513004,3.29E-11,,
,1.515004,3.29E-11,,
,1.517004,3.26E-11,,
,1.519004,3.24E-11,,
,1.521004,3.22E-11,,
,1.523004,3.21E-11,,
,1.525004,3.19E-11,,
,1.527004,3.15E-11,,
,1.529004,3.12E-11,,
,1.531004,3.10E-11,,
,1.533004,3.13E-11,,
,1.535004,3.16E-11,,
,1.537004,3.21E-11,,
,1.539004,3.21E-11,,
,1.541004,3.21E-11,,
,1.543004,3.15E-11,,
,1.545004,3.11E-11,,
,1.547004,3.09E-11,,
,1.549004,3.11E-11,,
,1.551004,3.11E-11,,
,1.553004,3.08E-11,,
,1.555004,3.01E-11,,
,1.557004,2.94E-11,,
,1.559004,2.83E-11,,
,1.561004,2.74E-11,,
,1.563004,2.67E-11,,
,1.565004,2.66E-11,,
,1.567004,2.67E-11,,
,1.569004,2.69E-11,,
,1.571004,2.71E-11,,
,1.573004,2.72E-11,,
,1.575004,2.72E-11,,
,1.577004,2.69E-11,,
,1.579004,2.64E-11,,
,1.581004,2.55E-11,,
,1.583004,2.50E-11,,
,1.585004,2.43E-11,,
,1.587004,2.35E-11,,
,1.589004,2.22E-11,,
,1.591004,2.09E-11,,
,1.593004,1.99E-11,,
,1.595004,1.90E-11,,
,1.597004,1.84E-11,,
,1.599004,1.81E-11,,
,1.601004,1.80E-11,,
,1.603004,1.78E-11,,
,1.605004,1.77E-11,,
,1.607004,1.74E-11,,
,1.609004,1.69E-11,,
,1.611004,1.60E-11,,
,1.613004,1.51E-11,,
,1.615004,1.41E-11,,
,1.617004,1.32E-11,,
,1.619004,1.22E-11,,
,1.621004,1.11E-11,,
,1.623004,1.01E-11,,
,1.625004,8.89E-12,,
,1.627004,7.81E-12,,
,1.629004,6.95E-12,,
,1.631004,6.74E-12,,
,1.633004,6.74E-12,,
,1.635004,7.17E-12,,
,1.637004,6.85E-12,,
,1.639004,6.85E-12,,
,1.641004,6.42E-12,,
,1.643004,5.99E-12,,
,1.645004,4.59E-12,,
,1.647004,3.09E-12,,
,1.649004,2.01E-12,,
,1.651004,1.26E-12,,
,1.653004,6.19E-13,,
,1.655004,-2.40E-13,,
,1.657004,-7.77E-13,,
,1.659004,-1.42E-12,,
,1.661004,-1.96E-12,,
,1.663004,-2.71E-12,,
,1.665004,-3.25E-12,,
,1.667004,-3.35E-12,,
,1.669004,-3.46E-12,,
,1.671004,-3.89E-12,,
,1.673004,-4.96E-12,,
,1.675004,-6.25E-12,,
,1.677004,-7.43E-12,,
,1.679004,-8.40E-12,,
,1.681004,-9.04E-12,,
,1.683004,-9.47E-12,,
,1.685004,-9.58E-12,,
,1.687004,-9.69E-12,,
,1.689004,-9.90E-12,,
,1.691004,-1.04E-11,,
,1.693004,-1.13E-11,,
,1.695004,-1.24E-11,,
,1.697004,-1.34E-11,,
,1.699004,-1.42E-11,,
,1.701004,-1.49E-11,,
,1.703004,-1.55E-11,,
,1.705004,-1.62E-11,,
,1.707004,-1.67E-11,,
,1.709004,-1.74E-11,,
,1.711004,-1.80E-11,,
,1.713004,-1.88E-11,,
,1.715004,-1.91E-11,,
,1.717004,-1.95E-11,,
,1.719004,-1.92E-11,,
,1.721004,-1.97E-11,,
,1.723004,-2.00E-11,,
,1.725004,-2.07E-11,,
,1.727004,-2.16E-11,,
,1.729004,-2.29E-11,,
,1.731004,-2.40E-11,,
,1.733004,-2.49E-11,,
,1.735004,-2.56E-11,,
,1.737004,-2.62E-11,,
,1.739004,-2.63E-11,,
,1.741004,-2.66E-11,,
,1.743004,-2.68E-11,,
,1.745004,-2.69E-11,,
,1.747004,-2.68E-11,,
,1.749004,-2.68E-11,,
,1.751004,-2.68E-11,,
,1.753004,-2.69E-11,,
,1.755004,-2.71E-11,,
,1.757004,-2.79E-11,,
,1.759004,-2.90E-11,,
,1.761004,-3.04E-11,,
,1.763004,-3.17E-11,,
,1.765004,-3.26E-11,,
,1.767004,-3.28E-11,,
,1.769004,-3.23E-11,,
,1.771004,-3.18E-11,,
,1.773004,-3.12E-11,,
,1.775004,-3.06E-11,,
,1.777004,-3.03E-11,,
,1.779004,-3.04E-11,,
,1.781004,-3.05E-11,,
,1.783004,-3.04E-11,,
,1.785004,-3.04E-11,,
,1.787004,-3.05E-11,,
,1.789004,-3.08E-11,,
,1.791004,-3.14E-11,,
,1.793004,-3.19E-11,,
,1.795004,-3.23E-11,,
,1.797004,-3.23E-11,,
,1.799004,-3.20E-11,,
,1.801004,-3.21E-11,,
,1.803004,-3.20E-11,,
,1.805004,-3.23E-11,,
,1.807004,-3.20E-11,,
,1.809004,-3.18E-11,,
,1.811004,-3.14E-11,,
,1.813004,-3.11E-11,,
,1.815004,-3.05E-11,,
,1.817004,-2.97E-11,,
,1.819004,-2.90E-11,,
,1.821004,-2.88E-11,,
,1.823004,-2.92E-11,,
,1.825004,-2.99E-11,,
,1.827004,-3.07E-11,,
,1.829004,-3.17E-11,,
,1.831004,-3.23E-11,,
,1.833004,-3.26E-11,,
,1.835004,-3.22E-11,,
,1.837004,-3.15E-11,,
,1.839004,-3.05E-11,,
,1.841004,-2.95E-11,,
,1.843004,-2.89E-11,,
,1.845004,-2.83E-11,,
,1.847004,-2.78E-11,,
,1.849004,-2.73E-11,,
,1.851004,-2.70E-11,,
,1.853004,-2.71E-11,,
,1.855004,-2.75E-11,,
,1.857004,-2.82E-11,,
,1.859004,-2.89E-11,,
,1.861004,-2.97E-11,,
,1.863004,-3.08E-11,,
,1.865004,-3.13E-11,,
,1.867004,-3.14E-11,,
,1.869004,-3.06E-11,,
,1.871004,-2.98E-11,,
,1.873004,-2.87E-11,,
,1.875004,-2.77E-11,,
,1.877004,-2.70E-11,,
,1.879004,-2.63E-11,,
,1.881004,-2.61E-11,,
,1.883004,-2.60E-11,,
,1.885004,-2.65E-11,,
,1.887004,-2.72E-11,,
,1.889004,-2.83E-11,,
,1.891004,-2.92E-11,,
,1.893004,-3.02E-11,,
,1.895004,-3.09E-11,,
,1.897004,-3.08E-11,,
,1.899004,-3.01E-11,,
,1.901004,-2.85E-11,,
,1.903004,-2.71E-11,,
,1.905004,-2.56E-11,,
,1.907004,-2.45E-11,,
,1.909004,-2.40E-11,,
,1.911004,-2.40E-11,,
,1.913004,-2.43E-11,,
,1.915004,-2.48E-11,,
,1.917004,-2.54E-11,,
,1.919004,-2.56E-11,,
,1.921004,-2.56E-11,,
,1.923004,-2.56E-11,,
,1.925004,-2.58E-11,,
,1.927004,-2.61E-11,,
,1.929004,-2.65E-11,,
,1.931004,-2.68E-11,,
,1.933004,-2.68E-11,,
,1.935004,-2.63E-11,,
,1.937004,-2.63E-11,,
,1.939004,-2.60E-11,,
,1.941004,-2.58E-11,,
,1.943004,-2.56E-11,,
,1.945004,-2.57E-11,,
,1.947004,-2.58E-11,,
,1.949004,-2.55E-11,,
,1.951004,-2.54E-11,,
,1.953004,-2.54E-11,,
,1.955004,-2.56E-11,,
,1.957004,-2.57E-11,,
,1.959004,-2.62E-11,,
,1.961004,-2.70E-11,,
,1.963004,-2.75E-11,,
,1.965004,-2.74E-11,,
,1.967004,-2.69E-11,,
,1.969004,-2.63E-11,,
,1.971004,-2.59E-11,,
,1.973004,-2.51E-11,,
,1.975004,-2.45E-11,,
,1.977004,-2.39E-11,,
,1.979004,-2.38E-11,,
,1.981004,-2.33E-11,,
,1.983004,-2.29E-11,,
,1.985004,-2.27E-11,,
,1.987004,-2.26E-11,,
,1.989004,-2.26E-11,,
,1.991004,-2.22E-11,,
,1.993004,-2.24E-11,,
,1.995004,-2.22E-11,,
,1.997004,-2.20E-11,,
,1.999004,-2.13E-11,,
,2.001004,-2.03E-11,,
,2.003004,-1.92E-11,,
,2.005004,-1.83E-11,,
,2.007004,-1.77E-11,,
,2.009004,-1.72E-11,,
,2.011004,-1.69E-11,,
,2.013004,-1.60E-11,,
,2.015004,-1.52E-11,,
,2.017004,-1.38E-11,,
,2.019004,-1.26E-11,,
,2.021004,-1.14E-11,,
,2.023004,-1.04E-11,,
,2.025004,-9.69E-12,,
,2.027004,-9.04E-12,,
,2.029004,-8.61E-12,,
,2.031004,-7.97E-12,,
,2.033004,-7.11E-12,,
,2.035004,-5.93E-12,,
,2.037004,-4.53E-12,,
,2.039004,-3.14E-12,,
,2.041004,-1.64E-12,,
,2.043004,-2.40E-13,,
,2.045004,9.41E-13,,
,2.047004,2.23E-12,,
,2.049004,3.52E-12,,
,2.051004,5.02E-12,,
,2.053004,6.20E-12,,
,2.055004,7.17E-12,,
,2.057004,7.81E-12,,
,2.059004,8.24E-12,,
,2.061004,8.78E-12,,
,2.063004,9.64E-12,,
,2.065004,1.08E-11,,
,2.067004,1.22E-11,,
,2.069004,1.38E-11,,
,2.071004,1.54E-11,,
,2.073004,1.69E-11,,
,2.075004,1.81E-11,,
,2.077004,1.91E-11,,
,2.079004,2.03E-11,,
,2.081004,2.12E-11,,
,2.083004,2.25E-11,,
,2.085004,2.34E-11,,
,2.087004,2.43E-11,,
,2.089004,2.51E-11,,
,2.091004,2.61E-11,,
,2.093004,2.69E-11,,
,2.095004,2.78E-11,,
,2.097004,2.86E-11,,
,2.099004,2.97E-11,,
,2.101004,3.12E-11,,
,2.103004,3.29E-11,,
,2.105004,3.47E-11,,
,2.107004,3.62E-11,,
,2.109004,3.73E-11,,
,2.111004,3.84E-11,,
,2.113004,3.93E-11,,
,2.115004,4.01E-11,,
,2.117004,4.13E-11,,
,2.119004,4.26E-11,,
,2.121004,4.38E-11,,
,2.123004,4.51E-11,,
,2.125004,4.59E-11,,
,2.127004,4.69E-11,,
,2.129004,4.77E-11,,
,2.131004,4.88E-11,,
,2.133004,5.02E-11,,
,2.135004,5.13E-11,,
,2.137004,5.24E-11,,
,2.139004,5.32E-11,,
,2.141004,5.41E-11,,
,2.143004,5.48E-11,,
,2.145004,5.55E-11,,
,2.147004,5.63E-11,,
,2.149004,5.75E-11,,
,2.151004,5.88E-11,,
,2.153004,5.99E-11,,
,2.155004,6.10E-11,,
,2.157004,6.17E-11,,
,2.159004,6.22E-11,,
,2.161004,6.26E-11,,
,2.163004,6.29E-11,,
,2.165004,6.34E-11,,
,2.167004,6.43E-11,,
,2.169004,6.54E-11,,
,2.171004,6.64E-11,,
,2.173004,6.74E-11,,
,2.175004,6.80E-11,,
,2.177004,6.87E-11,,
,2.179004,6.93E-11,,
,2.181004,7.01E-11,,
,2.183004,7.09E-11,,
,2.185004,7.16E-11,,
,2.187004,7.20E-11,,
,2.189004,7.21E-11,,
,2.191004,7.21E-11,,
,2.193004,7.21E-11,,
,2.195004,7.22E-11,,
,2.197004,7.24E-11,,
,2.199004,7.30E-11,,
,2.201004,7.39E-11,,
,2.203004,7.48E-11,,
,2.205004,7.57E-11,,
,2.207004,7.61E-11,,
,2.209004,7.63E-11,,
,2.211004,7.62E-11,,
,2.213004,7.58E-11,,
,2.215004,7.57E-11,,
,2.217004,7.57E-11,,
,2.219004,7.60E-11,,
,2.221004,7.62E-11,,
,2.223004,7.62E-11,,
,2.225004,7.61E-11,,
,2.227004,7.57E-11,,
,2.229004,7.54E-11,,
,2.231004,7.50E-11,,
,2.233004,7.51E-11,,
,2.235004,7.53E-11,,
,2.237004,7.56E-11,,
,2.239004,7.53E-11,,
,2.241004,7.51E-11,,
,2.243004,7.44E-11,,
,2.245004,7.37E-11,,
,2.247004,7.29E-11,,
,2.249004,7.28E-11,,
,2.251004,7.28E-11,,
,2.253004,7.28E-11,,
,2.255004,7.25E-11,,
,2.257004,7.23E-11,,
,2.259004,7.18E-11,,
,2.261004,7.09E-11,,
,2.263004,7.00E-11,,
,2.265004,6.92E-11,,
,2.267004,6.91E-11,,
,2.269004,6.88E-11,,
,2.271004,6.85E-11,,
,2.273004,6.79E-11,,
,2.275004,6.76E-11,,
,2.277004,6.73E-11,,
,2.279004,6.68E-11,,
,2.281004,6.61E-11,,
,2.283004,6.56E-11,,
,2.285004,6.51E-11,,
,2.287004,6.45E-11,,
,2.289004,6.36E-11,,
,2.291004,6.26E-11,,
,2.293004,6.14E-11,,
,2.295004,6.01E-11,,
,2.297004,5.91E-11,,
,2.299004,5.83E-11,,
,2.301004,5.78E-11,,
,2.303004,5.74E-11,,
,2.305004,5.69E-11,,
,2.307004,5.62E-11,,
,2.309004,5.52E-11,,
,2.311004,5.40E-11,,
,2.313004,5.26E-11,,
,2.315004,5.15E-11,,
,2.317004,5.08E-11,,
,2.319004,4.98E-11,,
,2.321004,4.88E-11,,
,2.323004,4.77E-11,,
,2.325004,4.69E-11,,
,2.327004,4.59E-11,,
,2.329004,4.48E-11,,
,2.331004,4.41E-11,,
,2.333004,4.32E-11,,
,2.335004,4.26E-11,,
,2.337004,4.18E-11,,
,2.339004,4.10E-11,,
,2.341004,3.97E-11,,
,2.343004,3.82E-11,,
,2.345004,3.67E-11,,
,2.347004,3.54E-11,,
,2.349004,3.43E-11,,
,2.351004,3.36E-11,,
,2.353004,3.30E-11,,
,2.355004,3.24E-11,,
,2.357004,3.16E-11,,
,2.359004,3.07E-11,,
,2.361004,2.94E-11,,
,2.363004,2.82E-11,,
,2.365004,2.72E-11,,
,2.367004,2.65E-11,,
,2.369004,2.60E-11,,
,2.371004,2.54E-11,,
,2.373004,2.48E-11,,
,2.375004,2.38E-11,,
,2.377004,2.25E-11,,
,2.379004,2.13E-11,,
,2.381004,2.01E-11,,
,2.383004,1.93E-11,,
,2.385004,1.85E-11,,
,2.387004,1.83E-11,,
,2.389004,1.79E-11,,
,2.391004,1.74E-11,,
,2.393004,1.65E-11,,
,2.395004,1.56E-11,,
,2.397004,1.49E-11,,
,2.399004,1.43E-11,,
,2.401004,1.35E-11,,
,2.403004,1.28E-11,,
,2.405004,1.17E-11,,
,2.407004,1.07E-11,,
,2.409004,9.74E-12,,
,2.411004,8.78E-12,,
,2.413004,7.92E-12,,
,2.415004,7.49E-12,,
,2.417004,7.49E-12,,
,2.419004,7.81E-12,,
,2.421004,8.03E-12,,
,2.423004,8.24E-12,,
,2.425004,7.92E-12,,
,2.427004,7.49E-12,,
,2.429004,6.42E-12,,
,2.431004,5.45E-12,,
,2.433004,4.48E-12,,
,2.435004,3.95E-12,,
,2.437004,3.09E-12,,
,2.439004,2.12E-12,,
,2.441004,1.16E-12,,
,2.443004,6.19E-13,,
,2.445004,2.97E-13,,
,2.447004,8.20E-14,,
,2.449004,2.97E-13,,
,2.451004,9.41E-13,,
,2.453004,1.48E-12,,
,2.455004,1.80E-12,,
,2.457004,1.59E-12,,
,2.459004,1.16E-12,,
,2.461004,1.89E-13,,
,2.463004,-1.10E-12,,
,2.465004,-2.17E-12,,
,2.467004,-2.82E-12,,
,2.469004,-3.35E-12,,
,2.471004,-4.00E-12,,
,2.473004,-4.53E-12,,
,2.475004,-4.75E-12,,
,2.477004,-4.64E-12,,
,2.479004,-4.64E-12,,
,2.481004,-4.32E-12,,
,2.483004,-4.00E-12,,
,2.485004,-3.35E-12,,
,2.487004,-3.14E-12,,
,2.489004,-3.14E-12,,
,2.491004,-3.78E-12,,
,2.493004,-4.86E-12,,
,2.495004,-6.04E-12,,
,2.497004,-7.22E-12,,
,2.499004,-8.08E-12,,
,2.501004,-8.72E-12,,
,2.503004,-9.15E-12,,
,2.505004,-9.58E-12,,
,2.507004,-9.69E-12,,
,2.509004,-9.79E-12,,
,2.511004,-9.69E-12,,
,2.513004,-9.90E-12,,
,2.515004,-9.79E-12,,
,2.517004,-9.90E-12,,
,2.519004,-1.00E-11,,
,2.521004,-1.05E-11,,
,2.523004,-1.11E-11,,
,2.525004,-1.17E-11,,
,2.527004,-1.29E-11,,
,2.529004,-1.41E-11,,
,2.531004,-1.53E-11,,
,2.533004,-1.56E-11,,
,2.535004,-1.58E-11,,
,2.537004,-1.61E-11,,
,2.539004,-1.67E-11,,
,2.541004,-1.71E-11,,
,2.543004,-1.76E-11,,
,2.545004,-1.83E-11,,
,2.547004,-1.89E-11,,
,2.549004,-1.93E-11,,
,2.551004,-1.96E-11,,
,2.553004,-1.99E-11,,
,2.555004,-2.01E-11,,
,2.557004,-2.06E-11,,
,2.559004,-2.14E-11,,
,2.561004,-2.24E-11,,
,2.563004,-2.32E-11,,
,2.565004,-2.40E-11,,
,2.567004,-2.46E-11,,
,2.569004,-2.51E-11,,
,2.571004,-2.58E-11,,
,2.573004,-2.62E-11,,
,2.575004,-2.66E-11,,
,2.577004,-2.70E-11,,
,2.579004,-2.75E-11,,
,2.581004,-2.79E-11,,
,2.583004,-2.80E-11,,
,2.585004,-2.79E-11,,
,2.587004,-2.79E-11,,
,2.589004,-2.83E-11,,
,2.591004,-2.90E-11,,
,2.593004,-2.98E-11,,
,2.595004,-3.06E-11,,
,2.597004,-3.14E-11,,
,2.599004,-3.21E-11,,
,2.601004,-3.26E-11,,
,2.603004,-3.28E-11,,
,2.605004,-3.31E-11,,
,2.607004,-3.32E-11,,
,2.609004,-3.35E-11,,
,2.611004,-3.36E-11,,
,2.613004,-3.42E-11,,
,2.615004,-3.42E-11,,
,2.617004,-3.38E-11,,
,2.619004,-3.33E-11,,
,2.621004,-3.32E-11,,
,2.623004,-3.34E-11,,
,2.625004,-3.39E-11,,
,2.627004,-3.44E-11,,
,2.629004,-3.53E-11,,
,2.631004,-3.63E-11,,
,2.633004,-3.72E-11,,
,2.635004,-3.73E-11,,
,2.637004,-3.73E-11,,
,2.639004,-3.73E-11,,
,2.641004,-3.68E-11,,
,2.643004,-3.63E-11,,
,2.645004,-3.58E-11,,
,2.647004,-3.57E-11,,
,2.649004,-3.51E-11,,
,2.651004,-3.47E-11,,
,2.653004,-3.47E-11,,
,2.655004,-3.50E-11,,
,2.657004,-3.55E-11,,
,2.659004,-3.58E-11,,
,2.661004,-3.62E-11,,
,2.663004,-3.67E-11,,
,2.665004,-3.68E-11,,
,2.667004,-3.70E-11,,
,2.669004,-3.67E-11,,
,2.671004,-3.66E-11,,
,2.673004,-3.64E-11,,
,2.675004,-3.62E-11,,
,2.677004,-3.60E-11,,
,2.679004,-3.58E-11,,
,2.681004,-3.55E-11,,
,2.683004,-3.50E-11,,
,2.685004,-3.46E-11,,
,2.687004,-3.45E-11,,
,2.689004,-3.48E-11,,
,2.691004,-3.52E-11,,
,2.693004,-3.57E-11,,
,2.695004,-3.64E-11,,
,2.697004,-3.71E-11,,
,2.699004,-3.73E-11,,
,2.701004,-3.73E-11,,
,2.703004,-3.72E-11,,
,2.705004,-3.73E-11,,
,2.707004,-3.71E-11,,
,2.709004,-3.72E-11,,
,2.711004,-3.75E-11,,
,2.713004,-3.79E-11,,
,2.715004,-3.82E-11,,
,2.717004,-3.80E-11,,
,2.719004,-3.81E-11,,
,2.721004,-3.80E-11,,
,2.723004,-3.85E-11,,
,2.725004,-3.86E-11,,
,2.727004,-3.91E-11,,
,2.729004,-3.97E-11,,
,2.731004,-4.03E-11,,
,2.733004,-4.07E-11,,
,2.735004,-4.09E-11,,
,2.737004,-4.16E-11,,
,2.739004,-4.19E-11,,
,2.741004,-4.20E-11,,
,2.743004,-4.19E-11,,
,2.745004,-4.20E-11,,
,2.747004,-4.20E-11,,
,2.749004,-4.19E-11,,
,2.751004,-4.17E-11,,
,2.753004,-4.14E-11,,
,2.755004,-4.11E-11,,
,2.757004,-4.11E-11,,
,2.759004,-4.19E-11,,
,2.761004,-4.28E-11,,
,2.763004,-4.37E-11,,
,2.765004,-4.46E-11,,
,2.767004,-4.51E-11,,
,2.769004,-4.57E-11,,
,2.771004,-4.57E-11,,
,2.773004,-4.58E-11,,
,2.775004,-4.51E-11,,
,2.777004,-4.47E-11,,
,2.779004,-4.40E-11,,
,2.781004,-4.36E-11,,
,2.783004,-4.30E-11,,
,2.785004,-4.26E-11,,
,2.787004,-4.28E-11,,
,2.789004,-4.34E-11,,
,2.791004,-4.43E-11,,
,2.793004,-4.55E-11,,
,2.795004,-4.68E-11,,
,2.797004,-4.79E-11,,
,2.799004,-4.84E-11,,
,2.801004,-4.84E-11,,
,2.803004,-4.80E-11,,
,2.805004,-4.75E-11,,
,2.807004,-4.72E-11,,
,2.809004,-4.72E-11,,
,2.811004,-4.70E-11,,
,2.813004,-4.73E-11,,
,2.815004,-4.72E-11,,
,2.817004,-4.74E-11,,
,2.819004,-4.73E-11,,
,2.821004,-4.75E-11,,
,2.823004,-4.76E-11,,
,2.825004,-4.78E-11,,
,2.827004,-4.82E-11,,
,2.829004,-4.90E-11,,
,2.831004,-4.97E-11,,
,2.833004,-5.05E-11,,
,2.835004,-5.09E-11,,
,2.837004,-5.13E-11,,
,2.839004,-5.13E-11,,
,2.841004,-5.14E-11,,
,2.843004,-5.11E-11,,
,2.845004,-5.10E-11,,
,2.847004,-5.05E-11,,
,2.849004,-4.98E-11,,
,2.851004,-4.93E-11,,
,2.853004,-4.89E-11,,
,2.855004,-4.88E-11,,
,2.857004,-4.93E-11,,
,2.859004,-5.02E-11,,
,2.861004,-5.13E-11,,
,2.863004,-5.23E-11,,
,2.865004,-5.28E-11,,
,2.867004,-5.35E-11,,
,2.869004,-5.34E-11,,
,2.871004,-5.32E-11,,
,2.873004,-5.24E-11,,
,2.875004,-5.18E-11,,
,2.877004,-5.12E-11,,
,2.879004,-5.08E-11,,
,2.881004,-5.02E-11,,
,2.883004,-4.97E-11,,
,2.885004,-4.95E-11,,
,2.887004,-4.99E-11,,
,2.889004,-5.03E-11,,
,2.891004,-5.08E-11,,
,2.893004,-5.14E-11,,
,2.895004,-5.23E-11,,
,2.897004,-5.30E-11,,
,2.899004,-5.33E-11,,
,2.901004,-5.36E-11,,
,2.903004,-5.38E-11,,
,2.905004,-5.36E-11,,
,2.907004,-5.32E-11,,
,2.909004,-5.27E-11,,
,2.911004,-5.30E-11,,
,2.913004,-5.32E-11,,
,2.915004,-5.32E-11,,
,2.917004,-5.30E-11,,
,2.919004,-5.28E-11,,
,2.921004,-5.31E-11,,
,2.923004,-5.33E-11,,
,2.925004,-5.38E-11,,
,2.927004,-5.45E-11,,
,2.929004,-5.52E-11,,
,2.931004,-5.56E-11,,
,2.933004,-5.59E-11,,
,2.935004,-5.60E-11,,
,2.937004,-5.61E-11,,
,2.939004,-5.61E-11,,
,2.941004,-5.60E-11,,
,2.943004,-5.61E-11,,
,2.945004,-5.62E-11,,
,2.947004,-5.64E-11,,
,2.949004,-5.62E-11,,
,2.951004,-5.60E-11,,
,2.953004,-5.59E-11,,
,2.955004,-5.60E-11,,
,2.957004,-5.64E-11,,
,2.959004,-5.68E-11,,
,2.961004,-5.72E-11,,
,2.963004,-5.77E-11,,
,2.965004,-5.79E-11,,
,2.967004,-5.81E-11,,
,2.969004,-5.78E-11,,
,2.971004,-5.78E-11,,
,2.973004,-5.78E-11,,
,2.975004,-5.80E-11,,
,2.977004,-5.83E-11,,
,2.979004,-5.85E-11,,
,2.981004,-5.87E-11,,
,2.983004,-5.86E-11,,
,2.985004,-5.86E-11,,
,2.987004,-5.89E-11,,
,2.989004,-5.91E-11,,
,2.991004,-5.92E-11,,
,2.993004,-5.96E-11,,
,2.995004,-5.96E-11,,
,2.997004,-5.99E-11,,
,2.999004,-5.96E-11,,
,3.001004,-5.96E-11,,
,3.003004,-5.95E-11,,
,3.005004,-5.96E-11,,
,3.007004,-5.98E-11,,
,3.009004,-6.01E-11,,
,3.011004,-6.06E-11,,
,3.013004,-6.09E-11,,
,3.015004,-6.08E-11,,
,3.017004,-6.04E-11,,
,3.019004,-5.98E-11,,
,3.021004,-5.95E-11,,
,3.023004,-5.93E-11,,
,3.025004,-5.92E-11,,
,3.027004,-5.93E-11,,
,3.029004,-5.97E-11,,
,3.031004,-6.03E-11,,
,3.033004,-6.03E-11,,
,3.035004,-6.01E-11,,
,3.037004,-6.01E-11,,
,3.039004,-6.01E-11,,
,3.041004,-6.00E-11,,
,3.043004,-5.96E-11,,
,3.045004,-5.95E-11,,
,3.047004,-5.92E-11,,
,3.049004,-5.86E-11,,
,3.051004,-5.80E-11,,
,3.053004,-5.76E-11,,
,3.055004,-5.77E-11,,
,3.057004,-5.76E-11,,
,3.059004,-5.76E-11,,
,3.061004,-5.75E-11,,
,3.063004,-5.78E-11,,
,3.065004,-5.82E-11,,
,3.067004,-5.80E-11,,
,3.069004,-5.77E-11,,
,3.071004,-5.74E-11,,
,3.073004,-5.75E-11,,
,3.075004,-5.77E-11,,
,3.077004,-5.76E-11,,
,3.079004,-5.79E-11,,
,3.081004,-5.77E-11,,
,3.083004,-5.72E-11,,
,3.085004,-5.65E-11,,
,3.087004,-5.61E-11,,
,3.089004,-5.57E-11,,
,3.091004,-5.54E-11,,
,3.093004,-5.54E-11,,
,3.095004,-5.59E-11,,
,3.097004,-5.63E-11,,
,3.099004,-5.64E-11,,
,3.101004,-5.66E-11,,
,3.103004,-5.67E-11,,
,3.105004,-5.71E-11,,
,3.107004,-5.72E-11,,
,3.109004,-5.72E-11,,
,3.111004,-5.68E-11,,
,3.113004,-5.61E-11,,
,3.115004,-5.53E-11,,
,3.117004,-5.46E-11,,
,3.119004,-5.39E-11,,
,3.121004,-5.34E-11,,
,3.123004,-5.32E-11,,
,3.125004,-5.37E-11,,
,3.127004,-5.47E-11,,
,3.129004,-5.59E-11,,
,3.131004,-5.66E-11,,
,3.133004,-5.70E-11,,
,3.135004,-5.69E-11,,
,3.137004,-5.68E-11,,
,3.139004,-5.64E-11,,
,3.141004,-5.59E-11,,
,3.143004,-5.53E-11,,
,3.145004,-5.46E-11,,
,3.147004,-5.41E-11,,
,3.149004,-5.35E-11,,
,3.151004,-5.33E-11,,
,3.153004,-5.32E-11,,
,3.155004,-5.34E-11,,
,3.157004,-5.39E-11,,
,3.159004,-5.45E-11,,
,3.161004,-5.50E-11,,
,3.163004,-5.54E-11,,
,3.165004,-5.55E-11,,
,3.167004,-5.55E-11,,
,3.169004,-5.54E-11,,
,3.171004,-5.54E-11,,
,3.173004,-5.53E-11,,
,3.175004,-5.50E-11,,
,3.177004,-5.49E-11,,
,3.179004,-5.47E-11,,
,3.181004,-5.46E-11,,
,3.183004,-5.41E-11,,
,3.185004,-5.36E-11,,
,3.187004,-5.31E-11,,
,3.189004,-5.30E-11,,
,3.191004,-5.32E-11,,
,3.193004,-5.39E-11,,
,3.195004,-5.47E-11,,
,3.197004,-5.53E-11,,
,3.199004,-5.59E-11,,
,3.201004,-5.62E-11,,
,3.203004,-5.64E-11,,
,3.205004,-5.61E-11,,
,3.207004,-5.57E-11,,
,3.209004,-5.53E-11,,
,3.211004,-5.48E-11,,
,3.213004,-5.41E-11,,
,3.215004,-5.34E-11,,
,3.217004,-5.30E-11,,
,3.219004,-5.26E-11,,
,3.221004,-5.27E-11,,
,3.223004,-5.27E-11,,
,3.225004,-5.30E-11,,
,3.227004,-5.33E-11,,
,3.229004,-5.41E-11,,
,3.231004,-5.47E-11,,
,3.233004,-5.52E-11,,
,3.235004,-5.52E-11,,
,3.237004,-5.55E-11,,
,3.239004,-5.54E-11,,
,3.241004,-5.53E-11,,
,3.243004,-5.49E-11,,
,3.245004,-5.45E-11,,
,3.247004,-5.36E-11,,
,3.249004,-5.24E-11,,
,3.251004,-5.13E-11,,
,3.253004,-5.05E-11,,
,3.255004,-5.03E-11,,
,3.257004,-5.03E-11,,
,3.259004,-5.11E-11,,
,3.261004,-5.21E-11,,
,3.263004,-5.33E-11,,
,3.265004,-5.41E-11,,
,3.267004,-5.47E-11,,
,3.269004,-5.46E-11,,
,3.271004,-5.40E-11,,
,3.273004,-5.31E-11,,
,3.275004,-5.22E-11,,
,3.277004,-5.13E-11,,
,3.279004,-5.05E-11,,
,3.281004,-4.93E-11,,
,3.283004,-4.84E-11,,
,3.285004,-4.79E-11,,
,3.287004,-4.80E-11,,
,3.289004,-4.83E-11,,
,3.291004,-4.93E-11,,
,3.293004,-5.03E-11,,
,3.295004,-5.12E-11,,
,3.297004,-5.18E-11,,
,3.299004,-5.18E-11,,
,3.301004,-5.09E-11,,
,3.303004,-4.97E-11,,
,3.305004,-4.86E-11,,
,3.307004,-4.78E-11,,
,3.309004,-4.74E-11,,
,3.311004,-4.75E-11,,
,3.313004,-4.76E-11,,
,3.315004,-4.77E-11,,
,3.317004,-4.78E-11,,
,3.319004,-4.80E-11,,
,3.321004,-4.81E-11,,
,3.323004,-4.82E-11,,
,3.325004,-4.81E-11,,
,3.327004,-4.82E-11,,
,3.329004,-4.84E-11,,
,3.331004,-4.89E-11,,
,3.333004,-4.90E-11,,
,3.335004,-4.88E-11,,
,3.337004,-4.88E-11,,
,3.339004,-4.88E-11,,
,3.341004,-4.89E-11,,
,3.343004,-4.90E-11,,
,3.345004,-4.93E-11,,
,3.347004,-4.94E-11,,
,3.349004,-4.90E-11,,
,3.351004,-4.84E-11,,
,3.353004,-4.82E-11,,
,3.355004,-4.84E-11,,
,3.357004,-4.89E-11,,
,3.359004,-4.94E-11,,
,3.361004,-4.98E-11,,
,3.363004,-5.03E-11,,
,3.365004,-5.05E-11,,
,3.367004,-5.06E-11,,
,3.369004,-5.05E-11,,
,3.371004,-5.05E-11,,
,3.373004,-5.05E-11,,
,3.375004,-5.08E-11,,
,3.377004,-5.12E-11,,
,3.379004,-5.19E-11,,
,3.381004,-5.25E-11,,
,3.383004,-5.28E-11,,
,3.385004,-5.31E-11,,
,3.387004,-5.32E-11,,
,3.389004,-5.35E-11,,
,3.391004,-5.39E-11,,
,3.393004,-5.43E-11,,
,3.395004,-5.50E-11,,
,3.397004,-5.52E-11,,
,3.399004,-5.52E-11,,
,3.401004,-5.51E-11,,
,3.403004,-5.54E-11,,
,3.405004,-5.60E-11,,
,3.407004,-5.68E-11,,
,3.409004,-5.81E-11,,
,3.411004,-5.94E-11,,
,3.413004,-6.06E-11,,
,3.415004,-6.11E-11,,
,3.417004,-6.13E-11,,
,3.419004,-6.08E-11,,
,3.421004,-6.03E-11,,
,3.423004,-5.95E-11,,
,3.425004,-5.93E-11,,
,3.427004,-5.93E-11,,
,3.429004,-5.99E-11,,
,3.431004,-6.05E-11,,
,3.433004,-6.12E-11,,
,3.435004,-6.20E-11,,
,3.437004,-6.30E-11,,
,3.439004,-6.41E-11,,
,3.441004,-6.50E-11,,
,3.443004,-6.57E-11,,
,3.445004,-6.64E-11,,
,3.447004,-6.69E-11,,
,3.449004,-6.68E-11,,
,3.451004,-6.60E-11,,
,3.453004,-6.53E-11,,
,3.455004,-6.47E-11,,
,3.457004,-6.45E-11,,
,3.459004,-6.45E-11,,
,3.461004,-6.52E-11,,
,3.463004,-6.60E-11,,
,3.465004,-6.69E-11,,
,3.467004,-6.76E-11,,
,3.469004,-6.82E-11,,
,3.471004,-6.89E-11,,
,3.473004,-6.95E-11,,
,3.475004,-6.97E-11,,
,3.477004,-6.96E-11,,
,3.479004,-6.94E-11,,
,3.481004,-6.89E-11,,
,3.483004,-6.81E-11,,
,3.485004,-6.71E-11,,
,3.487004,-6.64E-11,,
,3.489004,-6.60E-11,,
,3.491004,-6.62E-11,,
,3.493004,-6.66E-11,,
,3.495004,-6.74E-11,,
,3.497004,-6.83E-11,,
,3.499004,-6.89E-11,,
,3.501004,-6.93E-11,,
,3.503004,-6.96E-11,,
,3.505004,-6.98E-11,,
,3.507004,-6.98E-11,,
,3.509004,-6.96E-11,,
,3.511004,-6.92E-11,,
,3.513004,-6.88E-11,,
,3.515004,-6.81E-11,,
,3.517004,-6.72E-11,,
,3.519004,-6.64E-11,,
,3.521004,-6.60E-11,,
,3.523004,-6.59E-11,,
,3.525004,-6.59E-11,,
,3.527004,-6.60E-11,,
,3.529004,-6.66E-11,,
,3.531004,-6.72E-11,,
,3.533004,-6.77E-11,,
,3.535004,-6.77E-11,,
,3.537004,-6.74E-11,,
,3.539004,-6.69E-11,,
,3.541004,-6.64E-11,,
,3.543004,-6.56E-11,,
,3.545004,-6.49E-11,,
,3.547004,-6.38E-11,,
,3.549004,-6.25E-11,,
,3.551004,-6.13E-11,,
,3.553004,-6.04E-11,,
,3.555004,-5.98E-11,,
,3.557004,-5.96E-11,,
,3.559004,-6.00E-11,,
,3.561004,-6.06E-11,,
,3.563004,-6.13E-11,,
,3.565004,-6.15E-11,,
,3.567004,-6.18E-11,,
,3.569004,-6.18E-11,,
,3.571004,-6.16E-11,,
,3.573004,-6.11E-11,,
,3.575004,-6.05E-11,,
,3.577004,-5.97E-11,,
,3.579004,-5.92E-11,,
,3.581004,-5.84E-11,,
,3.583004,-5.76E-11,,
,3.585004,-5.66E-11,,
,3.587004,-5.59E-11,,
,3.589004,-5.56E-11,,
,3.591004,-5.60E-11,,
,3.593004,-5.66E-11,,
,3.595004,-5.75E-11,,
,3.597004,-5.84E-11,,
,3.599004,-5.91E-11,,
,3.601004,-5.93E-11,,
,3.603004,-5.93E-11,,
,3.605004,-5.94E-11,,
,3.607004,-5.92E-11,,
,3.609004,-5.89E-11,,
,3.611004,-5.85E-11,,
,3.613004,-5.83E-11,,
,3.615004,-5.81E-11,,
,3.617004,-5.77E-11,,
,3.619004,-5.75E-11,,
,3.621004,-5.72E-11,,
,3.623004,-5.72E-11,,
,3.625004,-5.76E-11,,
,3.627004,-5.83E-11,,
,3.629004,-5.93E-11,,
,3.631004,-5.99E-11,,
,3.633004,-6.05E-11,,
,3.635004,-6.08E-11,,
,3.637004,-6.14E-11,,
,3.639004,-6.18E-11,,
,3.641004,-6.19E-11,,
,3.643004,-6.20E-11,,
,3.645004,-6.21E-11,,
,3.647004,-6.24E-11,,
,3.649004,-6.21E-11,,
,3.651004,-6.18E-11,,
,3.653004,-6.12E-11,,
,3.655004,-6.12E-11,,
,3.657004,-6.13E-11,,
,3.659004,-6.16E-11,,
,3.661004,-6.24E-11,,
,3.663004,-6.35E-11,,
,3.665004,-6.47E-11,,
,3.667004,-6.55E-11,,
,3.669004,-6.59E-11,,
,3.671004,-6.64E-11,,
,3.673004,-6.68E-11,,
,3.675004,-6.69E-11,,
,3.677004,-6.68E-11,,
,3.679004,-6.64E-11,,
,3.681004,-6.60E-11,,
,3.683004,-6.56E-11,,
,3.685004,-6.51E-11,,
,3.687004,-6.47E-11,,
,3.689004,-6.45E-11,,
,3.691004,-6.49E-11,,
,3.693004,-6.57E-11,,
,3.695004,-6.70E-11,,
,3.697004,-6.84E-11,,
,3.699004,-6.95E-11,,
,3.701004,-7.02E-11,,
,3.703004,-7.08E-11,,
,3.705004,-7.12E-11,,
,3.707004,-7.13E-11,,
,3.709004,-7.13E-11,,
,3.711004,-7.11E-11,,
,3.713004,-7.08E-11,,
,3.715004,-7.01E-11,,
,3.717004,-6.94E-11,,
,3.719004,-6.87E-11,,
,3.721004,-6.85E-11,,
,3.723004,-6.89E-11,,
,3.725004,-6.95E-11,,
,3.727004,-7.06E-11,,
,3.729004,-7.14E-11,,
,3.731004,-7.26E-11,,
,3.733004,-7.30E-11,,
,3.735004,-7.33E-11,,
,3.737004,-7.32E-11,,
,3.739004,-7.29E-11,,
,3.741004,-7.22E-11,,
,3.743004,-7.13E-11,,
,3.745004,-7.09E-11,,
,3.747004,-7.05E-11,,
,3.749004,-6.98E-11,,
,3.751004,-6.89E-11,,
,3.753004,-6.85E-11,,
,3.755004,-6.84E-11,,
,3.757004,-6.86E-11,,
,3.759004,-6.89E-11,,
,3.761004,-6.98E-11,,
,3.763004,-7.05E-11,,
,3.765004,-7.07E-11,,
,3.767004,-7.05E-11,,
,3.769004,-6.99E-11,,
,3.771004,-6.96E-11,,
,3.773004,-6.88E-11,,
,3.775004,-6.83E-11,,
,3.777004,-6.79E-11,,
,3.779004,-6.76E-11,,
,3.781004,-6.72E-11,,
,3.783004,-6.64E-11,,
,3.785004,-6.56E-11,,
,3.787004,-6.48E-11,,
,3.789004,-6.41E-11,,
,3.791004,-6.37E-11,,
,3.793004,-6.34E-11,,
,3.795004,-6.36E-11,,
,3.797004,-6.38E-11,,
,3.799004,-6.38E-11,,
,3.801004,-6.35E-11,,
,3.803004,-6.29E-11,,
,3.805004,-6.25E-11,,
,3.807004,-6.22E-11,,
,3.809004,-6.18E-11,,
,3.811004,-6.13E-11,,
,3.813004,-6.04E-11,,
,3.815004,-5.94E-11,,
,3.817004,-5.81E-11,,
,3.819004,-5.70E-11,,
,3.821004,-5.60E-11,,
,3.823004,-5.55E-11,,
,3.825004,-5.54E-11,,
,3.827004,-5.54E-11,,
,3.829004,-5.54E-11,,
,3.831004,-5.54E-11,,
,3.833004,-5.54E-11,,
,3.835004,-5.51E-11,,
,3.837004,-5.45E-11,,
,3.839004,-5.37E-11,,
,3.841004,-5.31E-11,,
,3.843004,-5.24E-11,,
,3.845004,-5.20E-11,,
,3.847004,-5.17E-11,,
,3.849004,-5.13E-11,,
,3.851004,-5.07E-11,,
,3.853004,-4.99E-11,,
,3.855004,-4.93E-11,,
,3.857004,-4.90E-11,,
,3.859004,-4.89E-11,,
,3.861004,-4.87E-11,,
,3.863004,-4.86E-11,,
,3.865004,-4.82E-11,,
,3.867004,-4.82E-11,,
,3.869004,-4.79E-11,,
,3.871004,-4.78E-11,,
,3.873004,-4.79E-11,,
,3.875004,-4.81E-11,,
,3.877004,-4.83E-11,,
,3.879004,-4.84E-11,,
,3.881004,-4.83E-11,,
,3.883004,-4.79E-11,,
,3.885004,-4.70E-11,,
,3.887004,-4.63E-11,,
,3.889004,-4.58E-11,,
,3.891004,-4.54E-11,,
,3.893004,-4.54E-11,,
,3.895004,-4.57E-11,,
,3.897004,-4.60E-11,,
,3.899004,-4.62E-11,,
,3.901004,-4.63E-11,,
,3.903004,-4.64E-11,,
,3.905004,-4.68E-11,,
,3.907004,-4.74E-11,,
,3.909004,-4.79E-11,,
,3.911004,-4.81E-11,,
,3.913004,-4.82E-11,,
,3.915004,-4.84E-11,,
,3.917004,-4.84E-11,,
,3.919004,-4.82E-11,,
,3.921004,-4.79E-11,,
,3.923004,-4.79E-11,,
,3.925004,-4.78E-11,,
,3.927004,-4.81E-11,,
,3.929004,-4.87E-11,,
,3.931004,-4.97E-11,,
,3.933004,-5.03E-11,,
,3.935004,-5.06E-11,,
,3.937004,-5.09E-11,,
,3.939004,-5.14E-11,,
,3.941004,-5.21E-11,,
,3.943004,-5.26E-11,,
,3.945004,-5.33E-11,,
,3.947004,-5.37E-11,,
,3.949004,-5.36E-11,,
,3.951004,-5.34E-11,,
,3.953004,-5.30E-11,,
,3.955004,-5.27E-11,,
,3.957004,-5.25E-11,,
,3.959004,-5.28E-11,,
,3.961004,-5.35E-11,,
,3.963004,-5.46E-11,,
,3.965004,-5.53E-11,,
,3.967004,-5.63E-11,,
,3.969004,-5.68E-11,,
,3.971004,-5.75E-11,,
,3.973004,-5.79E-11,,
,3.975004,-5.83E-11,,
,3.977004,-5.90E-11,,
,3.979004,-5.93E-11,,
,3.981004,-5.94E-11,,
,3.983004,-5.90E-11,,
,3.985004,-5.84E-11,,
,3.987004,-5.81E-11,,
,3.989004,-5.81E-11,,
,3.991004,-5.85E-11,,
,3.993004,-5.90E-11,,
,3.995004,-5.98E-11,,
,3.997004,-6.09E-11,,
,3.999004,-6.22E-11,,
,4.001004,-6.28E-11,,
,4.003004,-6.33E-11,,
,4.005004,-6.33E-11,,
,4.007004,-6.33E-11,,
,4.009004,-6.30E-11,,
,4.011004,-6.30E-11,,
,4.013004,-6.30E-11,,
,4.015004,-6.28E-11,,
,4.017004,-6.24E-11,,
,4.019004,-6.19E-11,,
,4.021004,-6.16E-11,,
,4.023004,-6.19E-11,,
,4.025004,-6.22E-11,,
,4.027004,-6.29E-11,,
,4.029004,-6.37E-11,,
,4.031004,-6.49E-11,,
,4.033004,-6.53E-11,,
,4.035004,-6.52E-11,,
,4.037004,-6.47E-11,,
,4.039004,-6.44E-11,,
,4.041004,-6.43E-11,,
,4.043004,-6.43E-11,,
,4.045004,-6.42E-11,,
,4.047004,-6.41E-11,,
,4.049004,-6.35E-11,,
,4.051004,-6.27E-11,,
,4.053004,-6.20E-11,,
,4.055004,-6.16E-11,,
,4.057004,-6.15E-11,,
,4.059004,-6.18E-11,,
,4.061004,-6.20E-11,,
,4.063004,-6.25E-11,,
,4.065004,-6.28E-11,,
,4.067004,-6.34E-11,,
,4.069004,-6.34E-11,,
,4.071004,-6.30E-11,,
,4.073004,-6.25E-11,,
,4.075004,-6.21E-11,,
,4.077004,-6.21E-11,,
,4.079004,-6.18E-11,,
,4.081004,-6.11E-11,,
,4.083004,-5.98E-11,,
,4.085004,-5.90E-11,,
,4.087004,-5.81E-11,,
,4.089004,-5.78E-11,,
,4.091004,-5.75E-11,,
,4.093004,-5.77E-11,,
,4.095004,-5.80E-11,,
,4.097004,-5.84E-11,,
,4.099004,-5.84E-11,,
,4.101004,-5.83E-11,,
,4.103004,-5.81E-11,,
,4.105004,-5.80E-11,,
,4.107004,-5.78E-11,,
,4.109004,-5.77E-11,,
,4.111004,-5.76E-11,,
,4.113004,-5.74E-11,,
,4.115004,-5.66E-11,,
,4.117004,-5.56E-11,,
,4.119004,-5.43E-11,,
,4.121004,-5.31E-11,,
,4.123004,-5.22E-11,,
,4.125004,-5.20E-11,,
,4.127004,-5.25E-11,,
,4.129004,-5.35E-11,,
,4.131004,-5.45E-11,,
,4.133004,-5.51E-11,,
,4.135004,-5.54E-11,,
,4.137004,-5.54E-11,,
,4.139004,-5.53E-11,,
,4.141004,-5.47E-11,,
,4.143004,-5.38E-11,,
,4.145004,-5.27E-11,,
,4.147004,-5.12E-11,,
,4.149004,-4.99E-11,,
,4.151004,-4.88E-11,,
,4.153004,-4.81E-11,,
,4.155004,-4.78E-11,,
,4.157004,-4.78E-11,,
,4.159004,-4.84E-11,,
,4.161004,-4.96E-11,,
,4.163004,-5.06E-11,,
,4.165004,-5.12E-11,,
,4.167004,-5.10E-11,,
,4.169004,-5.09E-11,,
,4.171004,-5.02E-11,,
,4.173004,-4.93E-11,,
,4.175004,-4.83E-11,,
,4.177004,-4.80E-11,,
,4.179004,-4.75E-11,,
,4.181004,-4.73E-11,,
,4.183004,-4.69E-11,,
,4.185004,-4.72E-11,,
,4.187004,-4.74E-11,,
,4.189004,-4.77E-11,,
,4.191004,-4.81E-11,,
,4.193004,-4.86E-11,,
,4.195004,-4.89E-11,,
,4.197004,-4.92E-11,,
,4.199004,-4.90E-11,,
,4.201004,-4.87E-11,,
,4.203004,-4.82E-11,,
,4.205004,-4.83E-11,,
,4.207004,-4.83E-11,,
,4.209004,-4.88E-11,,
,4.211004,-4.91E-11,,
,4.213004,-4.98E-11,,
,4.215004,-5.01E-11,,
,4.217004,-4.99E-11,,
,4.219004,-4.96E-11,,
,4.221004,-4.94E-11,,
,4.223004,-4.94E-11,,
,4.225004,-4.97E-11,,
,4.227004,-4.99E-11,,
,4.229004,-5.04E-11,,
,4.231004,-5.06E-11,,
,4.233004,-5.11E-11,,
,4.235004,-5.16E-11,,
,4.237004,-5.21E-11,,
,4.239004,-5.25E-11,,
,4.241004,-5.33E-11,,
,4.243004,-5.37E-11,,
,4.245004,-5.43E-11,,
,4.247004,-5.43E-11,,
,4.249004,-5.43E-11,,
,4.251004,-5.39E-11,,
,4.253004,-5.37E-11,,
,4.255004,-5.39E-11,,
,4.257004,-5.43E-11,,
,4.259004,-5.50E-11,,
,4.261004,-5.57E-11,,
,4.263004,-5.70E-11,,
,4.265004,-5.83E-11,,
,4.267004,-5.94E-11,,
,4.269004,-5.99E-11,,
,4.271004,-6.05E-11,,
,4.273004,-6.10E-11,,
,4.275004,-6.14E-11,,
,4.277004,-6.16E-11,,
,4.279004,-6.19E-11,,
,4.281004,-6.21E-11,,
,4.283004,-6.22E-11,,
,4.285004,-6.23E-11,,
,4.287004,-6.24E-11,,
,4.289004,-6.28E-11,,
,4.291004,-6.34E-11,,
,4.293004,-6.41E-11,,
,4.295004,-6.50E-11,,
,4.297004,-6.56E-11,,
,4.299004,-6.59E-11,,
,4.301004,-6.60E-11,,
,4.303004,-6.62E-11,,
,4.305004,-6.62E-11,,
,4.307004,-6.63E-11,,
,4.309004,-6.66E-11,,
,4.311004,-6.71E-11,,
,4.313004,-6.79E-11,,
,4.315004,-6.80E-11,,
,4.317004,-6.81E-11,,
,4.319004,-6.79E-11,,
,4.321004,-6.77E-11,,
,4.323004,-6.76E-11,,
,4.325004,-6.69E-11,,
,4.327004,-6.67E-11,,
,4.329004,-6.66E-11,,
,4.331004,-6.70E-11,,
,4.333004,-6.73E-11,,
,4.335004,-6.76E-11,,
,4.337004,-6.78E-11,,
,4.339004,-6.80E-11,,
,4.341004,-6.81E-11,,
,4.343004,-6.80E-11,,
,4.345004,-6.80E-11,,
,4.347004,-6.77E-11,,
,4.349004,-6.67E-11,,
,4.351004,-6.53E-11,,
,4.353004,-6.41E-11,,
,4.355004,-6.35E-11,,
,4.357004,-6.32E-11,,
,4.359004,-6.29E-11,,
,4.361004,-6.30E-11,,
,4.363004,-6.30E-11,,
,4.365004,-6.32E-11,,
,4.367004,-6.32E-11,,
,4.369004,-6.35E-11,,
,4.371004,-6.36E-11,,
,4.373004,-6.35E-11,,
,4.375004,-6.34E-11,,
,4.377004,-6.34E-11,,
,4.379004,-6.34E-11,,
,4.381004,-6.28E-11,,
,4.383004,-6.19E-11,,
,4.385004,-6.08E-11,,
,4.387004,-5.95E-11,,
,4.389004,-5.85E-11,,
,4.391004,-5.78E-11,,
,4.393004,-5.77E-11,,
,4.395004,-5.78E-11,,
,4.397004,-5.83E-11,,
,4.399004,-5.89E-11,,
,4.401004,-5.93E-11,,
,4.403004,-5.98E-11,,
,4.405004,-5.99E-11,,
,4.407004,-5.98E-11,,
,4.409004,-5.92E-11,,
,4.411004,-5.85E-11,,
,4.413004,-5.77E-11,,
,4.415004,-5.64E-11,,
,4.417004,-5.50E-11,,
,4.419004,-5.38E-11,,
,4.421004,-5.31E-11,,
,4.423004,-5.25E-11,,
,4.425004,-5.25E-11,,
,4.427004,-5.28E-11,,
,4.429004,-5.37E-11,,
,4.431004,-5.42E-11,,
,4.433004,-5.47E-11,,
,4.435004,-5.46E-11,,
,4.437004,-5.43E-11,,
,4.439004,-5.37E-11,,
,4.441004,-5.33E-11,,
,4.443004,-5.27E-11,,
,4.445004,-5.25E-11,,
,4.447004,-5.22E-11,,
,4.449004,-5.17E-11,,
,4.451004,-5.11E-11,,
,4.453004,-5.08E-11,,
,4.455004,-5.09E-11,,
,4.457004,-5.09E-11,,
,4.459004,-5.12E-11,,
,4.461004,-5.17E-11,,
,4.463004,-5.23E-11,,
,4.465004,-5.24E-11,,
,4.467004,-5.24E-11,,
,4.469004,-5.24E-11,,
,4.471004,-5.25E-11,,
,4.473004,-5.26E-11,,
,4.475004,-5.26E-11,,
,4.477004,-5.26E-11,,
,4.479004,-5.30E-11,,
,4.481004,-5.33E-11,,
,4.483004,-5.36E-11,,
,4.485004,-5.35E-11,,
,4.487004,-5.35E-11,,
,4.489004,-5.35E-11,,
,4.491004,-5.37E-11,,
,4.493004,-5.40E-11,,
,4.495004,-5.43E-11,,
,4.497004,-5.48E-11,,
,4.499004,-5.48E-11,,
,4.501004,-5.48E-11,,
,4.503004,-5.48E-11,,
,4.505004,-5.48E-11,,
,4.507004,-5.51E-11,,
,4.509004,-5.52E-11,,
,4.511004,-5.60E-11,,
,4.513004,-5.66E-11,,
,4.515004,-5.71E-11,,
,4.517004,-5.69E-11,,
,4.519004,-5.66E-11,,
,4.521004,-5.62E-11,,
,4.523004,-5.61E-11,,
,4.525004,-5.57E-11,,
,4.527004,-5.59E-11,,
,4.529004,-5.62E-11,,
,4.531004,-5.69E-11,,
,4.533004,-5.75E-11,,
,4.535004,-5.80E-11,,
,4.537004,-5.82E-11,,
,4.539004,-5.89E-11,,
,4.541004,-5.93E-11,,
,4.543004,-5.99E-11,,
,4.545004,-6.01E-11,,
,4.547004,-6.01E-11,,
,4.549004,-5.98E-11,,
,4.551004,-5.93E-11,,
,4.553004,-5.90E-11,,
,4.555004,-5.85E-11,,
,4.557004,-5.83E-11,,
,4.559004,-5.83E-11,,
,4.561004,-5.86E-11,,
,4.563004,-5.94E-11,,
,4.565004,-5.97E-11,,
,4.567004,-5.99E-11,,
,4.569004,-5.95E-11,,
,4.571004,-5.94E-11,,
,4.573004,-5.91E-11,,
,4.575004,-5.92E-11,,
,4.577004,-5.92E-11,,
,4.579004,-5.96E-11,,
,4.581004,-5.97E-11,,
,4.583004,-5.95E-11,,
,4.585004,-5.89E-11,,
,4.587004,-5.81E-11,,
,4.589004,-5.76E-11,,
,4.591004,-5.71E-11,,
,4.593004,-5.69E-11,,
,4.595004,-5.69E-11,,
,4.597004,-5.72E-11,,
,4.599004,-5.76E-11,,
,4.601004,-5.78E-11,,
,4.603004,-5.77E-11,,
,4.605004,-5.78E-11,,
,4.607004,-5.78E-11,,
,4.609004,-5.80E-11,,
,4.611004,-5.80E-11,,
,4.613004,-5.78E-11,,
,4.615004,-5.74E-11,,
,4.617004,-5.67E-11,,
,4.619004,-5.61E-11,,
,4.621004,-5.54E-11,,
,4.623004,-5.51E-11,,
,4.625004,-5.49E-11,,
,4.627004,-5.51E-11,,
,4.629004,-5.52E-11,,
,4.631004,-5.56E-11,,
,4.633004,-5.56E-11,,
,4.635004,-5.56E-11,,
,4.637004,-5.59E-11,,
,4.639004,-5.61E-11,,
,4.641004,-5.63E-11,,
,4.643004,-5.64E-11,,
,4.645004,-5.68E-11,,
,4.647004,-5.69E-11,,
,4.649004,-5.66E-11,,
,4.651004,-5.59E-11,,
,4.653004,-5.52E-11,,
,4.655004,-5.47E-11,,
,4.657004,-5.45E-11,,
,4.659004,-5.41E-11,,
,4.661004,-5.42E-11,,
,4.663004,-5.48E-11,,
,4.665004,-5.59E-11,,
,4.667004,-5.69E-11,,
,4.669004,-5.77E-11,,
,4.671004,-5.83E-11,,
,4.673004,-5.87E-11,,
,4.675004,-5.90E-11,,
,4.677004,-5.89E-11,,
,4.679004,-5.87E-11,,
,4.681004,-5.82E-11,,
,4.683004,-5.75E-11,,
,4.685004,-5.63E-11,,
,4.687004,-5.56E-11,,
,4.689004,-5.55E-11,,
,4.691004,-5.60E-11,,
,4.693004,-5.68E-11,,
,4.695004,-5.83E-11,,
,4.697004,-5.99E-11,,
,4.699004,-6.12E-11,,
,4.701004,-6.19E-11,,
,4.703004,-6.23E-11,,
,4.705004,-6.23E-11,,
,4.707004,-6.22E-11,,
,4.709004,-6.19E-11,,
,4.711004,-6.18E-11,,
,4.713004,-6.14E-11,,
,4.715004,-6.11E-11,,
,4.717004,-6.08E-11,,
,4.719004,-6.07E-11,,
,4.721004,-6.08E-11,,
,4.723004,-6.11E-11,,
,4.725004,-6.15E-11,,
,4.727004,-6.23E-11,,
,4.729004,-6.36E-11,,
,4.731004,-6.48E-11,,
,4.733004,-6.57E-11,,
,4.735004,-6.59E-11,,
,4.737004,-6.64E-11,,
,4.739004,-6.63E-11,,
,4.741004,-6.60E-11,,
,4.743004,-6.55E-11,,
,4.745004,-6.52E-11,,
,4.747004,-6.49E-11,,
,4.749004,-6.47E-11,,
,4.751004,-6.42E-11,,
,4.753004,-6.40E-11,,
,4.755004,-6.40E-11,,
,4.757004,-6.45E-11,,
,4.759004,-6.51E-11,,
,4.761004,-6.58E-11,,
,4.763004,-6.66E-11,,
,4.765004,-6.69E-11,,
,4.767004,-6.70E-11,,
,4.769004,-6.68E-11,,
,4.771004,-6.69E-11,,
,4.773004,-6.67E-11,,
,4.775004,-6.65E-11,,
,4.777004,-6.64E-11,,
,4.779004,-6.65E-11,,
,4.781004,-6.68E-11,,
,4.783004,-6.66E-11,,
,4.785004,-6.60E-11,,
,4.787004,-6.54E-11,,
,4.789004,-6.51E-11,,
,4.791004,-6.50E-11,,
,4.793004,-6.50E-11,,
,4.795004,-6.54E-11,,
,4.797004,-6.58E-11,,
,4.799004,-6.63E-11,,
,4.801004,-6.66E-11,,
,4.803004,-6.70E-11,,
,4.805004,-6.74E-11,,
,4.807004,-6.77E-11,,
,4.809004,-6.78E-11,,
,4.811004,-6.77E-11,,
,4.813004,-6.76E-11,,
,4.815004,-6.71E-11,,
,4.817004,-6.64E-11,,
,4.819004,-6.54E-11,,
,4.821004,-6.47E-11,,
,4.823004,-6.43E-11,,
,4.825004,-6.45E-11,,
,4.827004,-6.52E-11,,
,4.829004,-6.63E-11,,
,4.831004,-6.72E-11,,
,4.833004,-6.78E-11,,
,4.835004,-6.80E-11,,
,4.837004,-6.82E-11,,
,4.839004,-6.84E-11,,
,4.841004,-6.84E-11,,
,4.843004,-6.81E-11,,
,4.845004,-6.78E-11,,
,4.847004,-6.72E-11,,
,4.849004,-6.66E-11,,
,4.851004,-6.59E-11,,
,4.853004,-6.54E-11,,
,4.855004,-6.49E-11,,
,4.857004,-6.48E-11,,
,4.859004,-6.51E-11,,
,4.861004,-6.59E-11,,
,4.863004,-6.68E-11,,
,4.865004,-6.76E-11,,
,4.867004,-6.82E-11,,
,4.869004,-6.84E-11,,
,4.871004,-6.85E-11,,
,4.873004,-6.85E-11,,
,4.875004,-6.83E-11,,
,4.877004,-6.83E-11,,
,4.879004,-6.78E-11,,
,4.881004,-6.77E-11,,
,4.883004,-6.69E-11,,
,4.885004,-6.66E-11,,
,4.887004,-6.63E-11,,
,4.889004,-6.67E-11,,
,4.891004,-6.71E-11,,
,4.893004,-6.79E-11,,
,4.895004,-6.86E-11,,
,4.897004,-6.94E-11,,
,4.899004,-6.98E-11,,
,4.901004,-6.97E-11,,
,4.903004,-6.96E-11,,
,4.905004,-6.94E-11,,
,4.907004,-6.95E-11,,
,4.909004,-6.97E-11,,
,4.911004,-7.01E-11,,
,4.913004,-7.07E-11,,
,4.915004,-7.11E-11,,
,4.917004,-7.12E-11,,
,4.919004,-7.09E-11,,
,4.921004,-7.08E-11,,
,4.923004,-7.05E-11,,
,4.925004,-7.02E-11,,
,4.927004,-6.99E-11,,
,4.929004,-7.02E-11,,
,4.931004,-7.07E-11,,
,4.933004,-7.12E-11,,
,4.935004,-7.15E-11,,
,4.937004,-7.20E-11,,
,4.939004,-7.23E-11,,
,4.941004,-7.28E-11,,
,4.943004,-7.35E-11,,
,4.945004,-7.41E-11,,
,4.947004,-7.43E-11,,
,4.949004,-7.41E-11,,
,4.951004,-7.35E-11,,
,4.953004,-7.26E-11,,
,4.955004,-7.21E-11,,
,4.957004,-7.17E-11,,
,4.959004,-7.21E-11,,
,4.961004,-7.24E-11,,
,4.963004,-7.30E-11,,
,4.965004,-7.37E-11,,
,4.967004,-7.43E-11,,
,4.969004,-7.51E-11,,
,4.971004,-7.56E-11,,
,4.973004,-7.62E-11,,
,4.975004,-7.65E-11,,
,4.977004,-7.69E-11,,
,4.979004,-7.71E-11,,
,4.981004,-7.73E-11,,
,4.983004,-7.70E-11,,
,4.985004,-7.68E-11,,
,4.987004,-7.66E-11,,
,4.989004,-7.66E-11,,
,4.991004,-7.66E-11,,
,4.993004,-7.67E-11,,
,4.995004,-7.72E-11,,
,4.997004,-7.78E-11,,
,4.999004,-7.84E-11,,
,5.001004,-7.87E-11,,
,5.003004,-7.90E-11,,
,5.005004,-7.96E-11,,
,5.007004,-8.00E-11,,
,5.009004,-8.04E-11,,
,5.011004,-8.08E-11,,
,5.013004,-8.08E-11,,
,5.015004,-8.03E-11,,
,5.017004,-7.95E-11,,
,5.019004,-7.87E-11,,
,5.021004,-7.82E-11,,
,5.023004,-7.80E-11,,
,5.025004,-7.82E-11,,
,5.027004,-7.89E-11,,
,5.029004,-7.98E-11,,
,5.031004,-8.05E-11,,
,5.033004,-8.12E-11,,
,5.035004,-8.16E-11,,
,5.037004,-8.19E-11,,
,5.039004,-8.22E-11,,
,5.041004,-8.23E-11,,
,5.043004,-8.24E-11,,
,5.045004,-8.20E-11,,
,5.047004,-8.18E-11,,
,5.049004,-8.13E-11,,
,5.051004,-8.09E-11,,
,5.053004,-8.02E-11,,
,5.055004,-8.00E-11,,
,5.057004,-7.99E-11,,
,5.059004,-8.02E-11,,
,5.061004,-8.06E-11,,
,5.063004,-8.12E-11,,
,5.065004,-8.16E-11,,
,5.067004,-8.17E-11,,
,5.069004,-8.20E-11,,
,5.071004,-8.19E-11,,
,5.073004,-8.23E-11,,
,5.075004,-8.23E-11,,
,5.077004,-8.27E-11,,
,5.079004,-8.29E-11,,
,5.081004,-8.29E-11,,
,5.083004,-8.28E-11,,
,5.085004,-8.24E-11,,
,5.087004,-8.19E-11,,
,5.089004,-8.15E-11,,
,5.091004,-8.14E-11,,
,5.093004,-8.16E-11,,
,5.095004,-8.23E-11,,
,5.097004,-8.28E-11,,
,5.099004,-8.34E-11,,
,5.101004,-8.35E-11,,
,5.103004,-8.37E-11,,
,5.105004,-8.37E-11,,
,5.107004,-8.35E-11,,
,5.109004,-8.32E-11,,
,5.111004,-8.31E-11,,
,5.113004,-8.31E-11,,
,5.115004,-8.34E-11,,
,5.117004,-8.31E-11,,
,5.119004,-8.29E-11,,
,5.121004,-8.24E-11,,
,5.123004,-8.19E-11,,
,5.125004,-8.15E-11,,
,5.127004,-8.15E-11,,
,5.129004,-8.16E-11,,
,5.131004,-8.18E-11,,
,5.133004,-8.17E-11,,
,5.135004,-8.18E-11,,
,5.137004,-8.19E-11,,
,5.139004,-8.22E-11,,
,5.141004,-8.23E-11,,
,5.143004,-8.24E-11,,
,5.145004,-8.26E-11,,
,5.147004,-8.28E-11,,
,5.149004,-8.26E-11,,
,5.151004,-8.19E-11,,
,5.153004,-8.12E-11,,
,5.155004,-8.03E-11,,
,5.157004,-7.97E-11,,
,5.159004,-7.89E-11,,
,5.161004,-7.88E-11,,
,5.163004,-7.89E-11,,
,5.165004,-7.95E-11,,
,5.167004,-7.98E-11,,
,5.169004,-8.02E-11,,
,5.171004,-8.04E-11,,
,5.173004,-8.05E-11,,
,5.175004,-8.04E-11,,
,5.177004,-8.03E-11,,
,5.179004,-8.02E-11,,
,5.181004,-8.01E-11,,
,5.183004,-7.94E-11,,
,5.185004,-7.84E-11,,
,5.187004,-7.72E-11,,
,5.189004,-7.68E-11,,
,5.191004,-7.64E-11,,
,5.193004,-7.61E-11,,
,5.195004,-7.60E-11,,
,5.197004,-7.66E-11,,
,5.199004,-7.72E-11,,
,5.201004,-7.76E-11,,
,5.203004,-7.80E-11,,
,5.205004,-7.81E-11,,
,5.207004,-7.83E-11,,
,5.209004,-7.83E-11,,
,5.211004,-7.83E-11,,
,5.213004,-7.82E-11,,
,5.215004,-7.78E-11,,
,5.217004,-7.71E-11,,
,5.219004,-7.61E-11,,
,5.221004,-7.53E-11,,
,5.223004,-7.46E-11,,
,5.225004,-7.44E-11,,
,5.227004,-7.46E-11,,
,5.229004,-7.50E-11,,
,5.231004,-7.52E-11,,
,5.233004,-7.53E-11,,
,5.235004,-7.55E-11,,
,5.237004,-7.57E-11,,
,5.239004,-7.58E-11,,
,5.241004,-7.58E-11,,
,5.243004,-7.58E-11,,
,5.245004,-7.57E-11,,
,5.247004,-7.56E-11,,
,5.249004,-7.49E-11,,
,5.251004,-7.40E-11,,
,5.253004,-7.28E-11,,
,5.255004,-7.20E-11,,
,5.257004,-7.13E-11,,
,5.259004,-7.10E-11,,
,5.261004,-7.14E-11,,
,5.263004,-7.21E-11,,
,5.265004,-7.28E-11,,
,5.267004,-7.32E-11,,
,5.269004,-7.38E-11,,
,5.271004,-7.42E-11,,
,5.273004,-7.45E-11,,
,5.275004,-7.45E-11,,
,5.277004,-7.44E-11,,
,5.279004,-7.43E-11,,
,5.281004,-7.38E-11,,
,5.283004,-7.31E-11,,
,5.285004,-7.23E-11,,
,5.287004,-7.14E-11,,
,5.289004,-7.08E-11,,
,5.291004,-7.05E-11,,
,5.293004,-7.08E-11,,
,5.295004,-7.13E-11,,
,5.297004,-7.18E-11,,
,5.299004,-7.25E-11,,
,5.301004,-7.30E-11,,
,5.303004,-7.36E-11,,
,5.305004,-7.38E-11,,
,5.307004,-7.40E-11,,
,5.309004,-7.40E-11,,
,5.311004,-7.44E-11,,
,5.313004,-7.44E-11,,
,5.315004,-7.45E-11,,
,5.317004,-7.41E-11,,
,5.319004,-7.36E-11,,
,5.321004,-7.31E-11,,
,5.323004,-7.29E-11,,
,5.325004,-7.33E-11,,
,5.327004,-7.40E-11,,
,5.329004,-7.47E-11,,
,5.331004,-7.59E-11,,
,5.333004,-7.67E-11,,
,5.335004,-7.75E-11,,
,5.337004,-7.82E-11,,
,5.339004,-7.88E-11,,
,5.341004,-7.94E-11,,
,5.343004,-7.96E-11,,
,5.345004,-8.02E-11,,
,5.347004,-8.06E-11,,
,5.349004,-8.09E-11,,
,5.351004,-8.06E-11,,
,5.353004,-8.06E-11,,
,5.355004,-8.08E-11,,
,5.357004,-8.13E-11,,
,5.359004,-8.22E-11,,
,5.361004,-8.37E-11,,
,5.363004,-8.53E-11,,
,5.365004,-8.67E-11,,
,5.367004,-8.75E-11,,
,5.369004,-8.83E-11,,
,5.371004,-8.88E-11,,
,5.373004,-8.96E-11,,
,5.375004,-9.01E-11,,
,5.377004,-9.06E-11,,
,5.379004,-9.12E-11,,
,5.381004,-9.17E-11,,
,5.383004,-9.22E-11,,
,5.385004,-9.26E-11,,
,5.387004,-9.29E-11,,
,5.389004,-9.33E-11,,
,5.391004,-9.37E-11,,
,5.393004,-9.42E-11,,
,5.395004,-9.46E-11,,
,5.397004,-9.54E-11,,
,5.399004,-9.61E-11,,
,5.401004,-9.69E-11,,
,5.403004,-9.74E-11,,
,5.405004,-9.80E-11,,
,5.407004,-9.81E-11,,
,5.409004,-9.84E-11,,
,5.411004,-9.85E-11,,
,5.413004,-9.87E-11,,
,5.415004,-9.86E-11,,
,5.417004,-9.81E-11,,
,5.419004,-9.79E-11,,
,5.421004,-9.74E-11,,
,5.423004,-9.72E-11,,
,5.425004,-9.72E-11,,
,5.427004,-9.77E-11,,
,5.429004,-9.84E-11,,
,5.431004,-9.91E-11,,
,5.433004,-9.93E-11,,
,5.435004,-9.93E-11,,
,5.437004,-9.91E-11,,
,5.439004,-9.90E-11,,
,5.441004,-9.87E-11,,
,5.443004,-9.83E-11,,
,5.445004,-9.81E-11,,
,5.447004,-9.79E-11,,
,5.449004,-9.76E-11,,
,5.451004,-9.71E-11,,
,5.453004,-9.65E-11,,
,5.455004,-9.59E-11,,
,5.457004,-9.55E-11,,
,5.459004,-9.53E-11,,
,5.461004,-9.53E-11,,
,5.463004,-9.55E-11,,
,5.465004,-9.57E-11,,
,5.467004,-9.59E-11,,
,5.469004,-9.55E-11,,
,5.471004,-9.50E-11,,
,5.473004,-9.46E-11,,
,5.475004,-9.44E-11,,
,5.477004,-9.41E-11,,
,5.479004,-9.37E-11,,
,5.481004,-9.30E-11,,
,5.483004,-9.21E-11,,
,5.485004,-9.11E-11,,
,5.487004,-9.04E-11,,
,5.489004,-8.99E-11,,
,5.491004,-8.95E-11,,
,5.493004,-8.92E-11,,
,5.495004,-8.91E-11,,
,5.497004,-8.95E-11,,
,5.499004,-8.97E-11,,
,5.501004,-8.97E-11,,
,5.503004,-8.95E-11,,
,5.505004,-8.88E-11,,
,5.507004,-8.84E-11,,
,5.509004,-8.78E-11,,
,5.511004,-8.76E-11,,
,5.513004,-8.73E-11,,
,5.515004,-8.66E-11,,
,5.517004,-8.58E-11,,
,5.519004,-8.52E-11,,
,5.521004,-8.47E-11,,
,5.523004,-8.45E-11,,
,5.525004,-8.45E-11,,
,5.527004,-8.48E-11,,
,5.529004,-8.52E-11,,
,5.531004,-8.55E-11,,
,5.533004,-8.55E-11,,
,5.535004,-8.52E-11,,
,5.537004,-8.46E-11,,
,5.539004,-8.42E-11,,
,5.541004,-8.37E-11,,
,5.543004,-8.29E-11,,
,5.545004,-8.24E-11,,
,5.547004,-8.22E-11,,
,5.549004,-8.19E-11,,
,5.551004,-8.16E-11,,
,5.553004,-8.12E-11,,
,5.555004,-8.10E-11,,
,5.557004,-8.06E-11,,
,5.559004,-8.06E-11,,
,5.561004,-8.08E-11,,
,5.563004,-8.11E-11,,
,5.565004,-8.11E-11,,
,5.567004,-8.09E-11,,
,5.569004,-8.02E-11,,
,5.571004,-7.98E-11,,
,5.573004,-7.93E-11,,
,5.575004,-7.91E-11,,
,5.577004,-7.90E-11,,
,5.579004,-7.90E-11,,
,5.581004,-7.94E-11,,
,5.583004,-7.94E-11,,
,5.585004,-7.96E-11,,
,5.587004,-7.95E-11,,
,5.589004,-7.95E-11,,
,5.591004,-7.93E-11,,
,5.593004,-7.90E-11,,
,5.595004,-7.89E-11,,
,5.597004,-7.89E-11,,
,5.599004,-7.87E-11,,
,5.601004,-7.84E-11,,
,5.603004,-7.83E-11,,
,5.605004,-7.85E-11,,
,5.607004,-7.88E-11,,
,5.609004,-7.94E-11,,
,5.611004,-7.98E-11,,
,5.613004,-8.01E-11,,
,5.615004,-8.02E-11,,
,5.617004,-8.00E-11,,
,5.619004,-7.97E-11,,
,5.621004,-7.91E-11,,
,5.623004,-7.89E-11,,
,5.625004,-7.88E-11,,
,5.627004,-7.89E-11,,
,5.629004,-7.90E-11,,
,5.631004,-7.90E-11,,
,5.633004,-7.90E-11,,
,5.635004,-7.88E-11,,
,5.637004,-7.90E-11,,
,5.639004,-7.93E-11,,
,5.641004,-7.98E-11,,
,5.643004,-8.03E-11,,
,5.645004,-8.09E-11,,
,5.647004,-8.12E-11,,
,5.649004,-8.11E-11,,
,5.651004,-8.06E-11,,
,5.653004,-8.00E-11,,
,5.655004,-7.95E-11,,
,5.657004,-7.90E-11,,
,5.659004,-7.87E-11,,
,5.661004,-7.86E-11,,
,5.663004,-7.88E-11,,
,5.665004,-7.95E-11,,
,5.667004,-8.01E-11,,
,5.669004,-8.08E-11,,
,5.671004,-8.15E-11,,
,5.673004,-8.22E-11,,
,5.675004,-8.28E-11,,
,5.677004,-8.31E-11,,
,5.679004,-8.33E-11,,
,5.681004,-8.32E-11,,
,5.683004,-8.25E-11,,
,5.685004,-8.16E-11,,
,5.687004,-8.06E-11,,
,5.689004,-8.00E-11,,
,5.691004,-7.99E-11,,
,5.693004,-8.03E-11,,
,5.695004,-8.11E-11,,
,5.697004,-8.17E-11,,
,5.699004,-8.20E-11,,
,5.701004,-8.23E-11,,
,5.703004,-8.23E-11,,
,5.705004,-8.22E-11,,
,5.707004,-8.19E-11,,
,5.709004,-8.19E-11,,
,5.711004,-8.22E-11,,
,5.713004,-8.24E-11,,
,5.715004,-8.25E-11,,
,5.717004,-8.25E-11,,
,5.719004,-8.20E-11,,
,5.721004,-8.15E-11,,
,5.723004,-8.06E-11,,
,5.725004,-8.01E-11,,
,5.727004,-7.97E-11,,
,5.729004,-7.98E-11,,
,5.731004,-7.97E-11,,
,5.733004,-7.97E-11,,
,5.735004,-7.97E-11,,
,5.737004,-8.03E-11,,
,5.739004,-8.10E-11,,
,5.741004,-8.16E-11,,
,5.743004,-8.19E-11,,
,5.745004,-8.22E-11,,
,5.747004,-8.19E-11,,
,5.749004,-8.12E-11,,
,5.751004,-8.00E-11,,
,5.753004,-7.86E-11,,
,5.755004,-7.76E-11,,
,5.757004,-7.69E-11,,
,5.759004,-7.66E-11,,
,5.761004,-7.67E-11,,
,5.763004,-7.71E-11,,
,5.765004,-7.73E-11,,
,5.767004,-7.78E-11,,
,5.769004,-7.78E-11,,
,5.771004,-7.82E-11,,
,5.773004,-7.84E-11,,
,5.775004,-7.88E-11,,
,5.777004,-7.88E-11,,
,5.779004,-7.85E-11,,
,5.781004,-7.78E-11,,
,5.783004,-7.65E-11,,
,5.785004,-7.51E-11,,
,5.787004,-7.36E-11,,
,5.789004,-7.27E-11,,
,5.791004,-7.20E-11,,
,5.793004,-7.18E-11,,
,5.795004,-7.24E-11,,
,5.797004,-7.33E-11,,
,5.799004,-7.44E-11,,
,5.801004,-7.52E-11,,
,5.803004,-7.55E-11,,
,5.805004,-7.54E-11,,
,5.807004,-7.46E-11,,
,5.809004,-7.37E-11,,
,5.811004,-7.25E-11,,
,5.813004,-7.13E-11,,
,5.815004,-7.00E-11,,
,5.817004,-6.87E-11,,
,5.819004,-6.76E-11,,
,5.821004,-6.69E-11,,
,5.823004,-6.67E-11,,
,5.825004,-6.70E-11,,
,5.827004,-6.74E-11,,
,5.829004,-6.82E-11,,
,5.831004,-6.87E-11,,
,5.833004,-6.91E-11,,
,5.835004,-6.88E-11,,
,5.837004,-6.88E-11,,
,5.839004,-6.87E-11,,
,5.841004,-6.87E-11,,
,5.843004,-6.87E-11,,
,5.845004,-6.88E-11,,
,5.847004,-6.91E-11,,
,5.849004,-6.91E-11,,
,5.851004,-6.88E-11,,
,5.853004,-6.87E-11,,
,5.855004,-6.85E-11,,
,5.857004,-6.85E-11,,
,5.859004,-6.86E-11,,
,5.861004,-6.92E-11,,
,5.863004,-7.02E-11,,
,5.865004,-7.12E-11,,
,5.867004,-7.21E-11,,
,5.869004,-7.24E-11,,
,5.871004,-7.30E-11,,
,5.873004,-7.35E-11,,
,5.875004,-7.39E-11,,
,5.877004,-7.39E-11,,
,5.879004,-7.40E-11,,
,5.881004,-7.42E-11,,
,5.883004,-7.41E-11,,
,5.885004,-7.41E-11,,
,5.887004,-7.42E-11,,
,5.889004,-7.46E-11,,
,5.891004,-7.53E-11,,
,5.893004,-7.61E-11,,
,5.895004,-7.71E-11,,
,5.897004,-7.82E-11,,
,5.899004,-7.91E-11,,
,5.901004,-7.97E-11,,
,5.903004,-7.99E-11,,
,5.905004,-8.00E-11,,
,5.907004,-8.03E-11,,
,5.909004,-8.06E-11,,
,5.911004,-8.09E-11,,
,5.913004,-8.13E-11,,
,5.915004,-8.17E-11,,
,5.917004,-8.22E-11,,
,5.919004,-8.25E-11,,
,5.921004,-8.29E-11,,
,5.923004,-8.34E-11,,
,5.925004,-8.40E-11,,
,5.927004,-8.44E-11,,
,5.929004,-8.47E-11,,
,5.931004,-8.47E-11,,
,5.933004,-8.47E-11,,
,5.935004,-8.48E-11,,
,5.937004,-8.52E-11,,
,5.939004,-8.55E-11,,
,5.941004,-8.57E-11,,
,5.943004,-8.58E-11,,
,5.945004,-8.61E-11,,
,5.947004,-8.63E-11,,
,5.949004,-8.63E-11,,
,5.951004,-8.57E-11,,
,5.953004,-8.51E-11,,
,5.955004,-8.49E-11,,
,5.957004,-8.52E-11,,
,5.959004,-8.54E-11,,
,5.961004,-8.54E-11,,
,5.963004,-8.57E-11,,
,5.965004,-8.58E-11,,
,5.967004,-8.62E-11,,
,5.969004,-8.60E-11,,
,5.971004,-8.62E-11,,
,5.973004,-8.60E-11,,
,5.975004,-8.60E-11,,
,5.977004,-8.58E-11,,
,5.979004,-8.59E-11,,
,5.981004,-8.59E-11,,
,5.983004,-8.58E-11,,
,5.985004,-8.52E-11,,
,5.987004,-8.46E-11,,
,5.989004,-8.41E-11,,
,5.991004,-8.41E-11,,
,5.993004,-8.41E-11,,
,5.995004,-8.42E-11,,
,5.997004,-8.43E-11,,
,5.999004,-8.44E-11,,
,6.001004,-8.43E-11,,
,6.003004,-8.40E-11,,
,6.005004,-8.37E-11,,
,6.007004,-8.35E-11,,
,6.009004,-8.31E-11,,
,6.011004,-8.28E-11,,
,6.013004,-8.26E-11,,
,6.015004,-8.25E-11,,
,6.017004,-8.25E-11,,
,6.019004,-8.22E-11,,
,6.021004,-8.20E-11,,
,6.023004,-8.15E-11,,
,6.025004,-8.14E-11,,
,6.027004,-8.14E-11,,
,6.029004,-8.15E-11,,
,6.031004,-8.14E-11,,
,6.033004,-8.12E-11,,
,6.035004,-8.08E-11,,
,6.037004,-8.06E-11,,
,6.039004,-8.03E-11,,
,6.041004,-8.03E-11,,
,6.043004,-8.03E-11,,
,6.045004,-8.06E-11,,
,6.047004,-8.12E-11,,
,6.049004,-8.14E-11,,
,6.051004,-8.14E-11,,
,6.053004,-8.11E-11,,
,6.055004,-8.09E-11,,
,6.057004,-8.08E-11,,
,6.059004,-8.08E-11,,
,6.061004,-8.08E-11,,
,6.063004,-8.06E-11,,
,6.065004,-8.06E-11,,
,6.067004,-8.03E-11,,
,6.069004,-8.01E-11,,
,6.071004,-8.00E-11,,
,6.073004,-8.01E-11,,
,6.075004,-8.04E-11,,
,6.077004,-8.06E-11,,
,6.079004,-8.10E-11,,
,6.081004,-8.09E-11,,
,6.083004,-8.04E-11,,
,6.085004,-7.98E-11,,
,6.087004,-7.91E-11,,
,6.089004,-7.87E-11,,
,6.091004,-7.83E-11,,
,6.093004,-7.84E-11,,
,6.095004,-7.89E-11,,
,6.097004,-7.97E-11,,
,6.099004,-8.05E-11,,
,6.101004,-8.10E-11,,
,6.103004,-8.15E-11,,
,6.105004,-8.13E-11,,
,6.107004,-8.12E-11,,
,6.109004,-8.08E-11,,
,6.111004,-8.08E-11,,
,6.113004,-8.05E-11,,
,6.115004,-8.03E-11,,
,6.117004,-8.00E-11,,
,6.119004,-7.97E-11,,
,6.121004,-7.95E-11,,
,6.123004,-7.95E-11,,
,6.125004,-7.97E-11,,
,6.127004,-8.01E-11,,
,6.129004,-8.04E-11,,
,6.131004,-8.08E-11,,
,6.133004,-8.09E-11,,
,6.135004,-8.08E-11,,
,6.137004,-8.08E-11,,
,6.139004,-8.05E-11,,
,6.141004,-8.05E-11,,
,6.143004,-8.01E-11,,
,6.145004,-7.98E-11,,
,6.147004,-7.94E-11,,
,6.149004,-7.90E-11,,
,6.151004,-7.85E-11,,
,6.153004,-7.81E-11,,
,6.155004,-7.79E-11,,
,6.157004,-7.82E-11,,
,6.159004,-7.84E-11,,
,6.161004,-7.89E-11,,
,6.163004,-7.90E-11,,
,6.165004,-7.91E-11,,
,6.167004,-7.86E-11,,
,6.169004,-7.83E-11,,
,6.171004,-7.79E-11,,
,6.173004,-7.76E-11,,
,6.175004,-7.74E-11,,
,6.177004,-7.74E-11,,
,6.179004,-7.76E-11,,
,6.181004,-7.76E-11,,
,6.183004,-7.75E-11,,
,6.185004,-7.70E-11,,
,6.187004,-7.66E-11,,
,6.189004,-7.61E-11,,
,6.191004,-7.57E-11,,
,6.193004,-7.56E-11,,
,6.195004,-7.58E-11,,
,6.197004,-7.61E-11,,
,6.199004,-7.65E-11,,
,6.201004,-7.64E-11,,
,6.203004,-7.62E-11,,
,6.205004,-7.58E-11,,
,6.207004,-7.55E-11,,
,6.209004,-7.53E-11,,
,6.211004,-7.49E-11,,
,6.213004,-7.46E-11,,
,6.215004,-7.45E-11,,
,6.217004,-7.42E-11,,
,6.219004,-7.39E-11,,
,6.221004,-7.33E-11,,
,6.223004,-7.35E-11,,
,6.225004,-7.33E-11,,
,6.227004,-7.37E-11,,
,6.229004,-7.39E-11,,
,6.231004,-7.42E-11,,
,6.233004,-7.41E-11,,
,6.235004,-7.36E-11,,
,6.237004,-7.29E-11,,
,6.239004,-7.23E-11,,
,6.241004,-7.18E-11,,
,6.243004,-7.13E-11,,
,6.245004,-7.11E-11,,
,6.247004,-7.12E-11,,
,6.249004,-7.15E-11,,
,6.251004,-7.16E-11,,
,6.253004,-7.16E-11,,
,6.255004,-7.17E-11,,
,6.257004,-7.18E-11,,
,6.259004,-7.21E-11,,
,6.261004,-7.22E-11,,
,6.263004,-7.24E-11,,
,6.265004,-7.23E-11,,
,6.267004,-7.21E-11,,
,6.269004,-7.16E-11,,
,6.271004,-7.14E-11,,
,6.273004,-7.12E-11,,
,6.275004,-7.14E-11,,
,6.277004,-7.15E-11,,
,6.279004,-7.18E-11,,
,6.281004,-7.18E-11,,
,6.283004,-7.18E-11,,
,6.285004,-7.16E-11,,
,6.287004,-7.15E-11,,
,6.289004,-7.15E-11,,
,6.291004,-7.17E-11,,
,6.293004,-7.20E-11,,
,6.295004,-7.24E-11,,
,6.297004,-7.27E-11,,
,6.299004,-7.25E-11,,
,6.301004,-7.17E-11,,
,6.303004,-7.09E-11,,
,6.305004,-7.05E-11,,
,6.307004,-7.02E-11,,
,6.309004,-7.01E-11,,
,6.311004,-7.03E-11,,
,6.313004,-7.09E-11,,
,6.315004,-7.13E-11,,
,6.317004,-7.15E-11,,
,6.319004,-7.14E-11,,
,6.321004,-7.15E-11,,
,6.323004,-7.14E-11,,
,6.325004,-7.12E-11,,
,6.327004,-7.07E-11,,
,6.329004,-7.00E-11,,
,6.331004,-6.95E-11,,
,6.333004,-6.87E-11,,
,6.335004,-6.81E-11,,
,6.337004,-6.76E-11,,
,6.339004,-6.77E-11,,
,6.341004,-6.80E-11,,
,6.343004,-6.85E-11,,
,6.345004,-6.93E-11,,
,6.347004,-7.01E-11,,
,6.349004,-7.07E-11,,
,6.351004,-7.07E-11,,
,6.353004,-7.03E-11,,
,6.355004,-6.98E-11,,
,6.357004,-6.93E-11,,
,6.359004,-6.86E-11,,
,6.361004,-6.82E-11,,
,6.363004,-6.78E-11,,
,6.365004,-6.74E-11,,
,6.367004,-6.72E-11,,
,6.369004,-6.71E-11,,
,6.371004,-6.73E-11,,
,6.373004,-6.78E-11,,
,6.375004,-6.83E-11,,
,6.377004,-6.91E-11,,
,6.379004,-6.97E-11,,
,6.381004,-7.03E-11,,
,6.383004,-7.03E-11,,
,6.385004,-7.00E-11,,
,6.387004,-6.92E-11,,
,6.389004,-6.83E-11,,
,6.391004,-6.72E-11,,
,6.393004,-6.66E-11,,
,6.395004,-6.62E-11,,
,6.397004,-6.59E-11,,
,6.399004,-6.57E-11,,
,6.401004,-6.56E-11,,
,6.403004,-6.58E-11,,
,6.405004,-6.59E-11,,
,6.407004,-6.62E-11,,
,6.409004,-6.65E-11,,
,6.411004,-6.71E-11,,
,6.413004,-6.77E-11,,
,6.415004,-6.77E-11,,
,6.417004,-6.72E-11,,
,6.419004,-6.64E-11,,
,6.421004,-6.57E-11,,
,6.423004,-6.51E-11,,
,6.425004,-6.48E-11,,
,6.427004,-6.47E-11,,
,6.429004,-6.49E-11,,
,6.431004,-6.54E-11,,
,6.433004,-6.56E-11,,
,6.435004,-6.58E-11,,
,6.437004,-6.58E-11,,
,6.439004,-6.59E-11,,
,6.441004,-6.60E-11,,
,6.443004,-6.64E-11,,
,6.445004,-6.68E-11,,
,6.447004,-6.71E-11,,
,6.449004,-6.71E-11,,
,6.451004,-6.68E-11,,
,6.453004,-6.65E-11,,
,6.455004,-6.60E-11,,
,6.457004,-6.59E-11,,
,6.459004,-6.58E-11,,
,6.461004,-6.60E-11,,
,6.463004,-6.64E-11,,
,6.465004,-6.67E-11,,
,6.467004,-6.68E-11,,
,6.469004,-6.67E-11,,
,6.471004,-6.68E-11,,
,6.473004,-6.72E-11,,
,6.475004,-6.78E-11,,
,6.477004,-6.82E-11,,
,6.479004,-6.86E-11,,
,6.481004,-6.88E-11,,
,6.483004,-6.88E-11,,
,6.485004,-6.84E-11,,
,6.487004,-6.82E-11,,
,6.489004,-6.79E-11,,
,6.491004,-6.80E-11,,
,6.493004,-6.80E-11,,
,6.495004,-6.85E-11,,
,6.497004,-6.88E-11,,
,6.499004,-6.94E-11,,
,6.501004,-6.95E-11,,
,6.503004,-6.96E-11,,
,6.505004,-6.97E-11,,
,6.507004,-7.01E-11,,
,6.509004,-7.07E-11,,
,6.511004,-7.14E-11,,
,6.513004,-7.20E-11,,
,6.515004,-7.25E-11,,
,6.517004,-7.25E-11,,
,6.519004,-7.26E-11,,
,6.521004,-7.25E-11,,
,6.523004,-7.26E-11,,
,6.525004,-7.26E-11,,
,6.527004,-7.26E-11,,
,6.529004,-7.27E-11,,
,6.531004,-7.29E-11,,
,6.533004,-7.30E-11,,
,6.535004,-7.33E-11,,
,6.537004,-7.37E-11,,
,6.539004,-7.44E-11,,
,6.541004,-7.49E-11,,
,6.543004,-7.55E-11,,
,6.545004,-7.62E-11,,
,6.547004,-7.70E-11,,
,6.549004,-7.71E-11,,
,6.551004,-7.66E-11,,
,6.553004,-7.58E-11,,
,6.555004,-7.51E-11,,
,6.557004,-7.45E-11,,
,6.559004,-7.43E-11,,
,6.561004,-7.47E-11,,
,6.563004,-7.53E-11,,
,6.565004,-7.56E-11,,
,6.567004,-7.57E-11,,
,6.569004,-7.57E-11,,
,6.571004,-7.60E-11,,
,6.573004,-7.60E-11,,
,6.575004,-7.61E-11,,
,6.577004,-7.61E-11,,
,6.579004,-7.64E-11,,
,6.581004,-7.62E-11,,
,6.583004,-7.59E-11,,
,6.585004,-7.53E-11,,
,6.587004,-7.45E-11,,
,6.589004,-7.38E-11,,
,6.591004,-7.31E-11,,
,6.593004,-7.28E-11,,
,6.595004,-7.27E-11,,
,6.597004,-7.28E-11,,
,6.599004,-7.29E-11,,
,6.601004,-7.29E-11,,
,6.603004,-7.26E-11,,
,6.605004,-7.26E-11,,
,6.607004,-7.23E-11,,
,6.609004,-7.21E-11,,
,6.611004,-7.15E-11,,
,6.613004,-7.12E-11,,
,6.615004,-7.10E-11,,
,6.617004,-7.06E-11,,
,6.619004,-6.98E-11,,
,6.621004,-6.89E-11,,
,6.623004,-6.83E-11,,
,6.625004,-6.80E-11,,
,6.627004,-6.78E-11,,
,6.629004,-6.78E-11,,
,6.631004,-6.77E-11,,
,6.633004,-6.74E-11,,
,6.635004,-6.67E-11,,
,6.637004,-6.64E-11,,
,6.639004,-6.62E-11,,
,6.641004,-6.63E-11,,
,6.643004,-6.59E-11,,
,6.645004,-6.58E-11,,
,6.647004,-6.56E-11,,
,6.649004,-6.56E-11,,
,6.651004,-6.51E-11,,
,6.653004,-6.48E-11,,
,6.655004,-6.40E-11,,
,6.657004,-6.34E-11,,
,6.659004,-6.26E-11,,
,6.661004,-6.25E-11,,
,6.663004,-6.24E-11,,
,6.665004,-6.21E-11,,
,6.667004,-6.15E-11,,
,6.669004,-6.12E-11,,
,6.671004,-6.11E-11,,
,6.673004,-6.13E-11,,
,6.675004,-6.18E-11,,
,6.677004,-6.22E-11,,
,6.679004,-6.26E-11,,
,6.681004,-6.29E-11,,
,6.683004,-6.27E-11,,
,6.685004,-6.20E-11,,
,6.687004,-6.10E-11,,
,6.689004,-6.03E-11,,
,6.691004,-5.97E-11,,
,6.693004,-5.91E-11,,
,6.695004,-5.92E-11,,
,6.697004,-5.94E-11,,
,6.699004,-5.99E-11,,
,6.701004,-6.04E-11,,
,6.703004,-6.08E-11,,
,6.705004,-6.13E-11,,
,6.707004,-6.19E-11,,
,6.709004,-6.24E-11,,
,6.711004,-6.28E-11,,
,6.713004,-6.32E-11,,
,6.715004,-6.30E-11,,
,6.717004,-6.29E-11,,
,6.719004,-6.25E-11,,
,6.721004,-6.22E-11,,
,6.723004,-6.20E-11,,
,6.725004,-6.19E-11,,
,6.727004,-6.19E-11,,
,6.729004,-6.19E-11,,
,6.731004,-6.22E-11,,
,6.733004,-6.25E-11,,
,6.735004,-6.28E-11,,
,6.737004,-6.30E-11,,
,6.739004,-6.36E-11,,
,6.741004,-6.42E-11,,
,6.743004,-6.52E-11,,
,6.745004,-6.63E-11,,
,6.747004,-6.74E-11,,
,6.749004,-6.82E-11,,
,6.751004,-6.83E-11,,
,6.753004,-6.79E-11,,
,6.755004,-6.72E-11,,
,6.757004,-6.67E-11,,
,6.759004,-6.60E-11,,
,6.761004,-6.59E-11,,
,6.763004,-6.62E-11,,
,6.765004,-6.71E-11,,
,6.767004,-6.77E-11,,
,6.769004,-6.87E-11,,
,6.771004,-6.98E-11,,
,6.773004,-7.12E-11,,
,6.775004,-7.25E-11,,
,6.777004,-7.35E-11,,
,6.779004,-7.44E-11,,
,6.781004,-7.49E-11,,
,6.783004,-7.50E-11,,
,6.785004,-7.45E-11,,
,6.787004,-7.39E-11,,
,6.789004,-7.32E-11,,
,6.791004,-7.28E-11,,
,6.793004,-7.28E-11,,
,6.795004,-7.32E-11,,
,6.797004,-7.39E-11,,
,6.799004,-7.45E-11,,
,6.801004,-7.53E-11,,
,6.803004,-7.62E-11,,
,6.805004,-7.74E-11,,
,6.807004,-7.84E-11,,
,6.809004,-7.91E-11,,
,6.811004,-7.96E-11,,
,6.813004,-8.03E-11,,
,6.815004,-8.08E-11,,
,6.817004,-8.11E-11,,
,6.819004,-8.05E-11,,
,6.821004,-8.00E-11,,
,6.823004,-7.96E-11,,
,6.825004,-7.96E-11,,
,6.827004,-7.97E-11,,
,6.829004,-8.00E-11,,
,6.831004,-8.04E-11,,
,6.833004,-8.10E-11,,
,6.835004,-8.15E-11,,
,6.837004,-8.18E-11,,
,6.839004,-8.23E-11,,
,6.841004,-8.26E-11,,
,6.843004,-8.32E-11,,
,6.845004,-8.37E-11,,
,6.847004,-8.38E-11,,
,6.849004,-8.35E-11,,
,6.851004,-8.30E-11,,
,6.853004,-8.24E-11,,
,6.855004,-8.15E-11,,
,6.857004,-8.10E-11,,
,6.859004,-8.05E-11,,
,6.861004,-8.09E-11,,
,6.863004,-8.13E-11,,
,6.865004,-8.18E-11,,
,6.867004,-8.18E-11,,
,6.869004,-8.14E-11,,
,6.871004,-8.11E-11,,
,6.873004,-8.06E-11,,
,6.875004,-8.04E-11,,
,6.877004,-8.03E-11,,
,6.879004,-8.05E-11,,
,6.881004,-8.05E-11,,
,6.883004,-8.00E-11,,
,6.885004,-7.90E-11,,
,6.887004,-7.83E-11,,
,6.889004,-7.78E-11,,
,6.891004,-7.73E-11,,
,6.893004,-7.69E-11,,
,6.895004,-7.65E-11,,
,6.897004,-7.64E-11,,
,6.899004,-7.62E-11,,
,6.901004,-7.58E-11,,
,6.903004,-7.54E-11,,
,6.905004,-7.50E-11,,
,6.907004,-7.47E-11,,
,6.909004,-7.45E-11,,
,6.911004,-7.44E-11,,
,6.913004,-7.43E-11,,
,6.915004,-7.41E-11,,
,6.917004,-7.39E-11,,
,6.919004,-7.37E-11,,
,6.921004,-7.33E-11,,
,6.923004,-7.29E-11,,
,6.925004,-7.23E-11,,
,6.927004,-7.17E-11,,
,6.929004,-7.13E-11,,
,6.931004,-7.13E-11,,
,6.933004,-7.11E-11,,
,6.935004,-7.09E-11,,
,6.937004,-7.07E-11,,
,6.939004,-7.08E-11,,
,6.941004,-7.08E-11,,
,6.943004,-7.10E-11,,
,6.945004,-7.12E-11,,
,6.947004,-7.15E-11,,
,6.949004,-7.15E-11,,
,6.951004,-7.11E-11,,
,6.953004,-7.06E-11,,
,6.955004,-6.99E-11,,
,6.957004,-6.95E-11,,
,6.959004,-6.92E-11,,
,6.961004,-6.93E-11,,
,6.963004,-6.95E-11,,
,6.965004,-6.96E-11,,
,6.967004,-6.95E-11,,
,6.969004,-6.96E-11,,
,6.971004,-6.99E-11,,
,6.973004,-7.02E-11,,
,6.975004,-7.07E-11,,
,6.977004,-7.11E-11,,
,6.979004,-7.16E-11,,
,6.981004,-7.21E-11,,
,6.983004,-7.24E-11,,
,6.985004,-7.25E-11,,
,6.987004,-7.24E-11,,
,6.989004,-7.22E-11,,
,6.991004,-7.21E-11,,
,6.993004,-7.21E-11,,
,6.995004,-7.23E-11,,
,6.997004,-7.26E-11,,
,6.999004,-7.30E-11,,
,7.001004,-7.33E-11,,
,7.003004,-7.36E-11,,
,7.005004,-7.37E-11,,
,7.007004,-7.40E-11,,
,7.009004,-7.47E-11,,
,7.011004,-7.58E-11,,
,7.013004,-7.69E-11,,
,7.015004,-7.78E-11,,
,7.017004,-7.79E-11,,
,7.019004,-7.76E-11,,
,7.021004,-7.71E-11,,
,7.023004,-7.65E-11,,
,7.025004,-7.59E-11,,
,7.027004,-7.54E-11,,
,7.029004,-7.54E-11,,
,7.031004,-7.57E-11,,
,7.033004,-7.64E-11,,
,7.035004,-7.72E-11,,
,7.037004,-7.80E-11,,
,7.039004,-7.87E-11,,
,7.041004,-7.95E-11,,
,7.043004,-8.02E-11,,
,7.045004,-8.10E-11,,
,7.047004,-8.11E-11,,
,7.049004,-8.06E-11,,
,7.051004,-7.98E-11,,
,7.053004,-7.89E-11,,
,7.055004,-7.80E-11,,
,7.057004,-7.71E-11,,
,7.059004,-7.66E-11,,
,7.061004,-7.69E-11,,
,7.063004,-7.74E-11,,
,7.065004,-7.83E-11,,
,7.067004,-7.88E-11,,
,7.069004,-7.93E-11,,
,7.071004,-7.96E-11,,
,7.073004,-7.97E-11,,
,7.075004,-7.98E-11,,
,7.077004,-7.98E-11,,
,7.079004,-8.01E-11,,
,7.081004,-8.02E-11,,
,7.083004,-7.98E-11,,
,7.085004,-7.90E-11,,
,7.087004,-7.86E-11,,
,7.089004,-7.83E-11,,
,7.091004,-7.82E-11,,
,7.093004,-7.78E-11,,
,7.095004,-7.76E-11,,
,7.097004,-7.78E-11,,
,7.099004,-7.79E-11,,
,7.101004,-7.80E-11,,
,7.103004,-7.80E-11,,
,7.105004,-7.83E-11,,
,7.107004,-7.86E-11,,
,7.109004,-7.89E-11,,
,7.111004,-7.90E-11,,
,7.113004,-7.95E-11,,
,7.115004,-7.94E-11,,
,7.117004,-7.89E-11,,
,7.119004,-7.80E-11,,
,7.121004,-7.71E-11,,
,7.123004,-7.64E-11,,
,7.125004,-7.58E-11,,
,7.127004,-7.56E-11,,
,7.129004,-7.57E-11,,
,7.131004,-7.58E-11,,
,7.133004,-7.58E-11,,
,7.135004,-7.58E-11,,
,7.137004,-7.60E-11,,
,7.139004,-7.61E-11,,
,7.141004,-7.64E-11,,
,7.143004,-7.67E-11,,
,7.145004,-7.69E-11,,
,7.147004,-7.73E-11,,
,7.149004,-7.72E-11,,
,7.151004,-7.70E-11,,
,7.153004,-7.62E-11,,
,7.155004,-7.56E-11,,
,7.157004,-7.50E-11,,
,7.159004,-7.43E-11,,
,7.161004,-7.39E-11,,
,7.163004,-7.38E-11,,
,7.165004,-7.40E-11,,
,7.167004,-7.37E-11,,
,7.169004,-7.37E-11,,
,7.171004,-7.40E-11,,
,7.173004,-7.47E-11,,
,7.175004,-7.54E-11,,
,7.177004,-7.59E-11,,
,7.179004,-7.67E-11,,
,7.181004,-7.71E-11,,
,7.183004,-7.69E-11,,
,7.185004,-7.60E-11,,
,7.187004,-7.51E-11,,
,7.189004,-7.38E-11,,
,7.191004,-7.29E-11,,
,7.193004,-7.22E-11,,
,7.195004,-7.23E-11,,
,7.197004,-7.26E-11,,
,7.199004,-7.32E-11,,
,7.201004,-7.37E-11,,
,7.203004,-7.42E-11,,
,7.205004,-7.47E-11,,
,7.207004,-7.54E-11,,
,7.209004,-7.55E-11,,
,7.211004,-7.56E-11,,
,7.213004,-7.54E-11,,
,7.215004,-7.51E-11,,
,7.217004,-7.43E-11,,
,7.219004,-7.33E-11,,
,7.221004,-7.27E-11,,
,7.223004,-7.22E-11,,
,7.225004,-7.23E-11,,
,7.227004,-7.28E-11,,
,7.229004,-7.35E-11,,
,7.231004,-7.40E-11,,
,7.233004,-7.41E-11,,
,7.235004,-7.42E-11,,
,7.237004,-7.42E-11,,
,7.239004,-7.43E-11,,
,7.241004,-7.45E-11,,
,7.243004,-7.49E-11,,
,7.245004,-7.54E-11,,
,7.247004,-7.59E-11,,
,7.249004,-7.61E-11,,
,7.251004,-7.60E-11,,
,7.253004,-7.59E-11,,
,7.255004,-7.59E-11,,
,7.257004,-7.59E-11,,
,7.259004,-7.56E-11,,
,7.261004,-7.56E-11,,
,7.263004,-7.59E-11,,
,7.265004,-7.65E-11,,
,7.267004,-7.68E-11,,
,7.269004,-7.69E-11,,
,7.271004,-7.73E-11,,
,7.273004,-7.78E-11,,
,7.275004,-7.83E-11,,
,7.277004,-7.85E-11,,
,7.279004,-7.88E-11,,
,7.281004,-7.91E-11,,
,7.283004,-7.90E-11,,
,7.285004,-7.88E-11,,
,7.287004,-7.85E-11,,
,7.289004,-7.87E-11,,
,7.291004,-7.87E-11,,
,7.293004,-7.89E-11,,
,7.295004,-7.90E-11,,
,7.297004,-7.96E-11,,
,7.299004,-7.96E-11,,
,7.301004,-7.95E-11,,
,7.303004,-7.94E-11,,
,7.305004,-7.94E-11,,
,7.307004,-7.93E-11,,
,7.309004,-7.90E-11,,
,7.311004,-7.91E-11,,
,7.313004,-7.97E-11,,
,7.315004,-8.01E-11,,
,7.317004,-8.03E-11,,
,7.319004,-8.02E-11,,
,7.321004,-8.02E-11,,
,7.323004,-8.04E-11,,
,7.325004,-8.04E-11,,
,7.327004,-8.03E-11,,
,7.329004,-8.00E-11,,
,7.331004,-7.97E-11,,
,7.333004,-7.93E-11,,
,7.335004,-7.87E-11,,
,7.337004,-7.83E-11,,
,7.339004,-7.79E-11,,
,7.341004,-7.78E-11,,
,7.343004,-7.80E-11,,
,7.345004,-7.88E-11,,
,7.347004,-7.96E-11,,
,7.349004,-8.01E-11,,
,7.351004,-8.01E-11,,
,7.353004,-8.00E-11,,
,7.355004,-8.00E-11,,
,7.357004,-7.97E-11,,
,7.359004,-7.93E-11,,
,7.361004,-7.88E-11,,
,7.363004,-7.86E-11,,
,7.365004,-7.82E-11,,
,7.367004,-7.75E-11,,
,7.369004,-7.69E-11,,
,7.371004,-7.68E-11,,
,7.373004,-7.68E-11,,
,7.375004,-7.71E-11,,
,7.377004,-7.73E-11,,
,7.379004,-7.78E-11,,
,7.381004,-7.82E-11,,
,7.383004,-7.85E-11,,
,7.385004,-7.84E-11,,
,7.387004,-7.78E-11,,
,7.389004,-7.68E-11,,
,7.391004,-7.58E-11,,
,7.393004,-7.50E-11,,
,7.395004,-7.42E-11,,
,7.397004,-7.36E-11,,
,7.399004,-7.30E-11,,
,7.401004,-7.27E-11,,
,7.403004,-7.25E-11,,
,7.405004,-7.26E-11,,
,7.407004,-7.28E-11,,
,7.409004,-7.32E-11,,
,7.411004,-7.36E-11,,
,7.413004,-7.41E-11,,
,7.415004,-7.44E-11,,
,7.417004,-7.45E-11,,
,7.419004,-7.39E-11,,
,7.421004,-7.32E-11,,
,7.423004,-7.24E-11,,
,7.425004,-7.18E-11,,
,7.427004,-7.14E-11,,
,7.429004,-7.14E-11,,
,7.431004,-7.15E-11,,
,7.433004,-7.17E-11,,
,7.435004,-7.16E-11,,
,7.437004,-7.15E-11,,
,7.439004,-7.17E-11,,
,7.441004,-7.22E-11,,
,7.443004,-7.29E-11,,
,7.445004,-7.38E-11,,
,7.447004,-7.46E-11,,
,7.449004,-7.51E-11,,
,7.451004,-7.47E-11,,
,7.453004,-7.43E-11,,
,7.455004,-7.38E-11,,
,7.457004,-7.31E-11,,
,7.459004,-7.25E-11,,
,7.461004,-7.20E-11,,
,7.463004,-7.16E-11,,
,7.465004,-7.14E-11,,
,7.467004,-7.14E-11,,
,7.469004,-7.16E-11,,
,7.471004,-7.21E-11,,
,7.473004,-7.26E-11,,
,7.475004,-7.37E-11,,
,7.477004,-7.44E-11,,
,7.479004,-7.53E-11,,
,7.481004,-7.56E-11,,
,7.483004,-7.58E-11,,
,7.485004,-7.57E-11,,
,7.487004,-7.52E-11,,
,7.489004,-7.46E-11,,
,7.491004,-7.36E-11,,
,7.493004,-7.27E-11,,
,7.495004,-7.22E-11,,
,7.497004,-7.21E-11,,
,7.499004,-7.23E-11,,
,7.501004,-7.22E-11,,
,7.503004,-7.26E-11,,
,7.505004,-7.31E-11,,
,7.507004,-7.41E-11,,
,7.509004,-7.51E-11,,
,7.511004,-7.60E-11,,
,7.513004,-7.69E-11,,
,7.515004,-7.72E-11,,
,7.517004,-7.69E-11,,
,7.519004,-7.64E-11,,
,7.521004,-7.56E-11,,
,7.523004,-7.49E-11,,
,7.525004,-7.41E-11,,
,7.527004,-7.37E-11,,
,7.529004,-7.38E-11,,
,7.531004,-7.39E-11,,
,7.533004,-7.40E-11,,
,7.535004,-7.39E-11,,
,7.537004,-7.44E-11,,
,7.539004,-7.49E-11,,
,7.541004,-7.56E-11,,
,7.543004,-7.61E-11,,
,7.545004,-7.70E-11,,
,7.547004,-7.78E-11,,
,7.549004,-7.80E-11,,
,7.551004,-7.76E-11,,
,7.553004,-7.70E-11,,
,7.555004,-7.64E-11,,
,7.557004,-7.59E-11,,
,7.559004,-7.54E-11,,
,7.561004,-7.50E-11,,
,7.563004,-7.46E-11,,
,7.565004,-7.44E-11,,
,7.567004,-7.41E-11,,
,7.569004,-7.40E-11,,
,7.571004,-7.41E-11,,
,7.573004,-7.46E-11,,
,7.575004,-7.53E-11,,
,7.577004,-7.58E-11,,
,7.579004,-7.66E-11,,
,7.581004,-7.70E-11,,
,7.583004,-7.72E-11,,
,7.585004,-7.67E-11,,
,7.587004,-7.59E-11,,
,7.589004,-7.50E-11,,
,7.591004,-7.39E-11,,
,7.593004,-7.30E-11,,
,7.595004,-7.23E-11,,
,7.597004,-7.20E-11,,
,7.599004,-7.15E-11,,
,7.601004,-7.15E-11,,
,7.603004,-7.17E-11,,
,7.605004,-7.23E-11,,
,7.607004,-7.30E-11,,
,7.609004,-7.39E-11,,
,7.611004,-7.47E-11,,
,7.613004,-7.56E-11,,
,7.615004,-7.59E-11,,
,7.617004,-7.56E-11,,
,7.619004,-7.47E-11,,
,7.621004,-7.40E-11,,
,7.623004,-7.31E-11,,
,7.625004,-7.24E-11,,
,7.627004,-7.14E-11,,
,7.629004,-7.13E-11,,
,7.631004,-7.13E-11,,
,7.633004,-7.16E-11,,
,7.635004,-7.20E-11,,
,7.637004,-7.27E-11,,
,7.639004,-7.39E-11,,
,7.641004,-7.46E-11,,
,7.643004,-7.53E-11,,
,7.645004,-7.58E-11,,
,7.647004,-7.62E-11,,
,7.649004,-7.61E-11,,
,7.651004,-7.54E-11,,
,7.653004,-7.47E-11,,
,7.655004,-7.41E-11,,
,7.657004,-7.32E-11,,
,7.659004,-7.24E-11,,
,7.661004,-7.20E-11,,
,7.663004,-7.22E-11,,
,7.665004,-7.28E-11,,
,7.667004,-7.33E-11,,
,7.669004,-7.39E-11,,
,7.671004,-7.44E-11,,
,7.673004,-7.52E-11,,
,7.675004,-7.61E-11,,
,7.677004,-7.71E-11,,
,7.679004,-7.79E-11,,
,7.681004,-7.82E-11,,
,7.683004,-7.78E-11,,
,7.685004,-7.70E-11,,
,7.687004,-7.64E-11,,
,7.689004,-7.61E-11,,
,7.691004,-7.60E-11,,
,7.693004,-7.59E-11,,
,7.695004,-7.60E-11,,
,7.697004,-7.64E-11,,
,7.699004,-7.66E-11,,
,7.701004,-7.67E-11,,
,7.703004,-7.68E-11,,
,7.705004,-7.70E-11,,
,7.707004,-7.74E-11,,
,7.709004,-7.78E-11,,
,7.711004,-7.83E-11,,
,7.713004,-7.87E-11,,
,7.715004,-7.91E-11,,
,7.717004,-7.91E-11,,
,7.719004,-7.88E-11,,
,7.721004,-7.85E-11,,
,7.723004,-7.81E-11,,
,7.725004,-7.76E-11,,
,7.727004,-7.72E-11,,
,7.729004,-7.71E-11,,
,7.731004,-7.73E-11,,
,7.733004,-7.75E-11,,
,7.735004,-7.80E-11,,
,7.737004,-7.83E-11,,
,7.739004,-7.86E-11,,
,7.741004,-7.88E-11,,
,7.743004,-7.94E-11,,
,7.745004,-8.01E-11,,
,7.747004,-8.08E-11,,
,7.749004,-8.10E-11,,
,7.751004,-8.08E-11,,
,7.753004,-8.03E-11,,
,7.755004,-7.98E-11,,
,7.757004,-7.95E-11,,
,7.759004,-7.94E-11,,
,7.761004,-7.95E-11,,
,7.763004,-7.98E-11,,
,7.765004,-8.02E-11,,
,7.767004,-8.02E-11,,
,7.769004,-8.01E-11,,
,7.771004,-7.98E-11,,
,7.773004,-7.98E-11,,
,7.775004,-7.99E-11,,
,7.777004,-8.03E-11,,
,7.779004,-8.10E-11,,
,7.781004,-8.15E-11,,
,7.783004,-8.17E-11,,
,7.785004,-8.17E-11,,
,7.787004,-8.14E-11,,
,7.789004,-8.10E-11,,
,7.791004,-8.05E-11,,
,7.793004,-8.03E-11,,
,7.795004,-8.02E-11,,
,7.797004,-8.04E-11,,
,7.799004,-8.04E-11,,
,7.801004,-8.04E-11,,
,7.803004,-8.01E-11,,
,7.805004,-8.01E-11,,
,7.807004,-8.00E-11,,
,7.809004,-8.00E-11,,
,7.811004,-8.03E-11,,
,7.813004,-8.11E-11,,
,7.815004,-8.16E-11,,
,7.817004,-8.17E-11,,
,7.819004,-8.14E-11,,
,7.821004,-8.11E-11,,
,7.823004,-8.05E-11,,
,7.825004,-8.02E-11,,
,7.827004,-8.01E-11,,
,7.829004,-8.03E-11,,
,7.831004,-8.05E-11,,
,7.833004,-8.03E-11,,
,7.835004,-8.00E-11,,
,7.837004,-7.97E-11,,
,7.839004,-7.95E-11,,
,7.841004,-7.95E-11,,
,7.843004,-7.96E-11,,
,7.845004,-8.00E-11,,
,7.847004,-8.05E-11,,
,7.849004,-8.09E-11,,
,7.851004,-8.10E-11,,
,7.853004,-8.08E-11,,
,7.855004,-8.05E-11,,
,7.857004,-8.04E-11,,
,7.859004,-7.99E-11,,
,7.861004,-7.94E-11,,
,7.863004,-7.89E-11,,
,7.865004,-7.87E-11,,
,7.867004,-7.85E-11,,
,7.869004,-7.79E-11,,
,7.871004,-7.75E-11,,
,7.873004,-7.73E-11,,
,7.875004,-7.76E-11,,
,7.877004,-7.80E-11,,
,7.879004,-7.87E-11,,
,7.881004,-7.95E-11,,
,7.883004,-8.00E-11,,
,7.885004,-8.00E-11,,
,7.887004,-7.97E-11,,
,7.889004,-7.91E-11,,
,7.891004,-7.86E-11,,
,7.893004,-7.81E-11,,
,7.895004,-7.74E-11,,
,7.897004,-7.71E-11,,
,7.899004,-7.65E-11,,
,7.901004,-7.64E-11,,
,7.903004,-7.61E-11,,
,7.905004,-7.65E-11,,
,7.907004,-7.70E-11,,
,7.909004,-7.75E-11,,
,7.911004,-7.84E-11,,
,7.913004,-7.94E-11,,
,7.915004,-7.98E-11,,
,7.917004,-7.96E-11,,
,7.919004,-7.87E-11,,
,7.921004,-7.80E-11,,
,7.923004,-7.74E-11,,
,7.925004,-7.67E-11,,
,7.927004,-7.64E-11,,
,7.929004,-7.61E-11,,
,7.931004,-7.64E-11,,
,7.933004,-7.65E-11,,
,7.935004,-7.65E-11,,
,7.937004,-7.67E-11,,
,7.939004,-7.69E-11,,
,7.941004,-7.73E-11,,
,7.943004,-7.74E-11,,
,7.945004,-7.79E-11,,
,7.947004,-7.81E-11,,
,7.949004,-7.83E-11,,
,7.951004,-7.80E-11,,
,7.953004,-7.76E-11,,
,7.955004,-7.74E-11,,
,7.957004,-7.73E-11,,
,7.959004,-7.70E-11,,
,7.961004,-7.66E-11,,
,7.963004,-7.62E-11,,
,7.965004,-7.60E-11,,
,7.967004,-7.57E-11,,
,7.969004,-7.56E-11,,
,7.971004,-7.58E-11,,
,7.973004,-7.65E-11,,
,7.975004,-7.72E-11,,
,7.977004,-7.81E-11,,
,7.979004,-7.90E-11,,
,7.981004,-7.96E-11,,
,7.983004,-7.97E-11,,
,7.985004,-7.95E-11,,
,7.987004,-7.88E-11,,
,7.989004,-7.82E-11,,
,7.991004,-7.72E-11,,
,7.993004,-7.68E-11,,
,7.995004,-7.65E-11,,
,7.997004,-7.66E-11,,
,7.999004,-7.68E-11,,
,8.001004,-7.70E-11,,
,8.003004,-7.73E-11,,
,8.005004,-7.79E-11,,
,8.007004,-7.85E-11,,
,8.009004,-7.90E-11,,
,8.011004,-7.98E-11,,
,8.013004,-8.08E-11,,
,8.015004,-8.15E-11,,
,8.017004,-8.17E-11,,
,8.019004,-8.15E-11,,
,8.021004,-8.14E-11,,
,8.023004,-8.11E-11,,
,8.025004,-8.08E-11,,
,8.027004,-8.04E-11,,
,8.029004,-8.02E-11,,
,8.031004,-8.01E-11,,
,8.033004,-8.01E-11,,
,8.035004,-8.03E-11,,
,8.037004,-8.10E-11,,
,8.039004,-8.17E-11,,
,8.041004,-8.30E-11,,
,8.043004,-8.44E-11,,
,8.045004,-8.59E-11,,
,8.047004,-8.72E-11,,
,8.049004,-8.78E-11,,
,8.051004,-8.76E-11,,
,8.053004,-8.68E-11,,
,8.055004,-8.57E-11,,
,8.057004,-8.48E-11,,
,8.059004,-8.40E-11,,
,8.061004,-8.35E-11,,
,8.063004,-8.35E-11,,
,8.065004,-8.42E-11,,
,8.067004,-8.49E-11,,
,8.069004,-8.60E-11,,
,8.071004,-8.71E-11,,
,8.073004,-8.82E-11,,
,8.075004,-8.90E-11,,
,8.077004,-8.98E-11,,
,8.079004,-9.03E-11,,
,8.081004,-9.05E-11,,
,8.083004,-9.03E-11,,
,8.085004,-8.97E-11,,
,8.087004,-8.90E-11,,
,8.089004,-8.85E-11,,
,8.091004,-8.85E-11,,
,8.093004,-8.88E-11,,
,8.095004,-8.92E-11,,
,8.097004,-9.00E-11,,
,8.099004,-9.05E-11,,
,8.101004,-9.13E-11,,
,8.103004,-9.14E-11,,
,8.105004,-9.16E-11,,
,8.107004,-9.16E-11,,
,8.109004,-9.19E-11,,
,8.111004,-9.21E-11,,
,8.113004,-9.25E-11,,
,8.115004,-9.29E-11,,
,8.117004,-9.33E-11,,
,8.119004,-9.34E-11,,
,8.121004,-9.33E-11,,
,8.123004,-9.32E-11,,
,8.125004,-9.33E-11,,
,8.127004,-9.33E-11,,
,8.129004,-9.33E-11,,
,8.131004,-9.32E-11,,
,8.133004,-9.30E-11,,
,8.135004,-9.26E-11,,
,8.137004,-9.24E-11,,
,8.139004,-9.24E-11,,
,8.141004,-9.27E-11,,
,8.143004,-9.30E-11,,
,8.145004,-9.35E-11,,
,8.147004,-9.44E-11,,
,8.149004,-9.48E-11,,
,8.151004,-9.49E-11,,
,8.153004,-9.44E-11,,
,8.155004,-9.41E-11,,
,8.157004,-9.36E-11,,
,8.159004,-9.31E-11,,
,8.161004,-9.27E-11,,
,8.163004,-9.22E-11,,
,8.165004,-9.19E-11,,
,8.167004,-9.14E-11,,
,8.169004,-9.08E-11,,
,8.171004,-9.10E-11,,
,8.173004,-9.13E-11,,
,8.175004,-9.20E-11,,
,8.177004,-9.26E-11,,
,8.179004,-9.32E-11,,
,8.181004,-9.37E-11,,
,8.183004,-9.39E-11,,
,8.185004,-9.33E-11,,
,8.187004,-9.26E-11,,
,8.189004,-9.13E-11,,
,8.191004,-9.02E-11,,
,8.193004,-8.92E-11,,
,8.195004,-8.89E-11,,
,8.197004,-8.89E-11,,
,8.199004,-8.88E-11,,
,8.201004,-8.89E-11,,
,8.203004,-8.90E-11,,
,8.205004,-8.93E-11,,
,8.207004,-8.96E-11,,
,8.209004,-8.98E-11,,
,8.211004,-9.01E-11,,
,8.213004,-9.01E-11,,
,8.215004,-9.00E-11,,
,8.217004,-8.96E-11,,
,8.219004,-8.92E-11,,
,8.221004,-8.89E-11,,
,8.223004,-8.87E-11,,
,8.225004,-8.85E-11,,
,8.227004,-8.82E-11,,
,8.229004,-8.77E-11,,
,8.231004,-8.74E-11,,
,8.233004,-8.71E-11,,
,8.235004,-8.68E-11,,
,8.237004,-8.62E-11,,
,8.239004,-8.61E-11,,
,8.241004,-8.61E-11,,
,8.243004,-8.69E-11,,
,8.245004,-8.74E-11,,
,8.247004,-8.84E-11,,
,8.249004,-8.87E-11,,
,8.251004,-8.88E-11,,
,8.253004,-8.81E-11,,
,8.255004,-8.73E-11,,
,8.257004,-8.63E-11,,
,8.259004,-8.56E-11,,
,8.261004,-8.47E-11,,
,8.263004,-8.42E-11,,
,8.265004,-8.37E-11,,
,8.267004,-8.33E-11,,
,8.269004,-8.33E-11,,
,8.271004,-8.35E-11,,
,8.273004,-8.41E-11,,
,8.275004,-8.45E-11,,
,8.277004,-8.49E-11,,
,8.279004,-8.56E-11,,
,8.281004,-8.59E-11,,
,8.283004,-8.61E-11,,
,8.285004,-8.58E-11,,
,8.287004,-8.55E-11,,
,8.289004,-8.51E-11,,
,8.291004,-8.45E-11,,
,8.293004,-8.40E-11,,
,8.295004,-8.33E-11,,
,8.297004,-8.29E-11,,
,8.299004,-8.24E-11,,
,8.301004,-8.23E-11,,
,8.303004,-8.23E-11,,
,8.305004,-8.26E-11,,
,8.307004,-8.31E-11,,
,8.309004,-8.41E-11,,
,8.311004,-8.51E-11,,
,8.313004,-8.60E-11,,
,8.315004,-8.64E-11,,
,8.317004,-8.64E-11,,
,8.319004,-8.59E-11,,
,8.321004,-8.51E-11,,
,8.323004,-8.43E-11,,
,8.325004,-8.33E-11,,
,8.327004,-8.26E-11,,
,8.329004,-8.22E-11,,
,8.331004,-8.23E-11,,
,8.333004,-8.26E-11,,
,8.335004,-8.28E-11,,
,8.337004,-8.30E-11,,
,8.339004,-8.35E-11,,
,8.341004,-8.44E-11,,
,8.343004,-8.54E-11,,
,8.345004,-8.61E-11,,
,8.347004,-8.64E-11,,
,8.349004,-8.64E-11,,
,8.351004,-8.60E-11,,
,8.353004,-8.56E-11,,
,8.355004,-8.51E-11,,
,8.357004,-8.47E-11,,
,8.359004,-8.47E-11,,
,8.361004,-8.49E-11,,
,8.363004,-8.55E-11,,
,8.365004,-8.58E-11,,
,8.367004,-8.61E-11,,
,8.369004,-8.61E-11,,
,8.371004,-8.63E-11,,
,8.373004,-8.66E-11,,
,8.375004,-8.68E-11,,
,8.377004,-8.70E-11,,
,8.379004,-8.74E-11,,
,8.381004,-8.78E-11,,
,8.383004,-8.82E-11,,
,8.385004,-8.83E-11,,
,8.387004,-8.83E-11,,
,8.389004,-8.82E-11,,
,8.391004,-8.82E-11,,
,8.393004,-8.83E-11,,
,8.395004,-8.86E-11,,
,8.397004,-8.88E-11,,
,8.399004,-8.90E-11,,
,8.401004,-8.89E-11,,
,8.403004,-8.87E-11,,
,8.405004,-8.85E-11,,
,8.407004,-8.86E-11,,
,8.409004,-8.88E-11,,
,8.411004,-8.92E-11,,
,8.413004,-8.98E-11,,
,8.415004,-9.03E-11,,
,8.417004,-9.06E-11,,
,8.419004,-9.06E-11,,
,8.421004,-9.08E-11,,
,8.423004,-9.08E-11,,
,8.425004,-9.08E-11,,
,8.427004,-9.05E-11,,
,8.429004,-9.04E-11,,
,8.431004,-9.03E-11,,
,8.433004,-9.00E-11,,
,8.435004,-8.96E-11,,
,8.437004,-8.91E-11,,
,8.439004,-8.91E-11,,
,8.441004,-8.93E-11,,
,8.443004,-8.98E-11,,
,8.445004,-9.05E-11,,
,8.447004,-9.15E-11,,
,8.449004,-9.24E-11,,
,8.451004,-9.27E-11,,
,8.453004,-9.25E-11,,
,8.455004,-9.21E-11,,
,8.457004,-9.15E-11,,
,8.459004,-9.10E-11,,
,8.461004,-9.00E-11,,
,8.463004,-8.95E-11,,
,8.465004,-8.88E-11,,
,8.467004,-8.87E-11,,
,8.469004,-8.86E-11,,
,8.471004,-8.86E-11,,
,8.473004,-8.85E-11,,
,8.475004,-8.85E-11,,
,8.477004,-8.89E-11,,
,8.479004,-8.93E-11,,
,8.481004,-8.97E-11,,
,8.483004,-8.93E-11,,
,8.485004,-8.91E-11,,
,8.487004,-8.84E-11,,
,8.489004,-8.78E-11,,
,8.491004,-8.71E-11,,
,8.493004,-8.69E-11,,
,8.495004,-8.67E-11,,
,8.497004,-8.63E-11,,
,8.499004,-8.58E-11,,
,8.501004,-8.53E-11,,
,8.503004,-8.51E-11,,
,8.505004,-8.48E-11,,
,8.507004,-8.47E-11,,
,8.509004,-8.47E-11,,
,8.511004,-8.52E-11,,
,8.513004,-8.58E-11,,
,8.515004,-8.63E-11,,
,8.517004,-8.64E-11,,
,8.519004,-8.60E-11,,
,8.521004,-8.56E-11,,
,8.523004,-8.51E-11,,
,8.525004,-8.46E-11,,
,8.527004,-8.42E-11,,
,8.529004,-8.38E-11,,
,8.531004,-8.39E-11,,
,8.533004,-8.37E-11,,
,8.535004,-8.37E-11,,
,8.537004,-8.32E-11,,
,8.539004,-8.32E-11,,
,8.541004,-8.33E-11,,
,8.543004,-8.37E-11,,
,8.545004,-8.41E-11,,
,8.547004,-8.47E-11,,
,8.549004,-8.53E-11,,
,8.551004,-8.53E-11,,
,8.553004,-8.48E-11,,
,8.555004,-8.44E-11,,
,8.557004,-8.41E-11,,
,8.559004,-8.39E-11,,
,8.561004,-8.35E-11,,
,8.563004,-8.34E-11,,
,8.565004,-8.32E-11,,
,8.567004,-8.31E-11,,
,8.569004,-8.29E-11,,
,8.571004,-8.31E-11,,
,8.573004,-8.38E-11,,
,8.575004,-8.44E-11,,
,8.577004,-8.53E-11,,
,8.579004,-8.60E-11,,
,8.581004,-8.71E-11,,
,8.583004,-8.75E-11,,
,8.585004,-8.76E-11,,
,8.587004,-8.73E-11,,
,8.589004,-8.69E-11,,
,8.591004,-8.62E-11,,
,8.593004,-8.56E-11,,
,8.595004,-8.53E-11,,
,8.597004,-8.51E-11,,
,8.599004,-8.52E-11,,
,8.601004,-8.52E-11,,
,8.603004,-8.56E-11,,
,8.605004,-8.60E-11,,
,8.607004,-8.70E-11,,
,8.609004,-8.78E-11,,
,8.611004,-8.88E-11,,
,8.613004,-8.96E-11,,
,8.615004,-9.00E-11,,
,8.617004,-9.00E-11,,
,8.619004,-8.97E-11,,
,8.621004,-8.92E-11,,
,8.623004,-8.86E-11,,
,8.625004,-8.78E-11,,
,8.627004,-8.72E-11,,
,8.629004,-8.72E-11,,
,8.631004,-8.75E-11,,
,8.633004,-8.79E-11,,
,8.635004,-8.81E-11,,
,8.637004,-8.82E-11,,
,8.639004,-8.85E-11,,
,8.641004,-8.91E-11,,
,8.643004,-8.99E-11,,
,8.645004,-9.07E-11,,
,8.647004,-9.15E-11,,
,8.649004,-9.19E-11,,
,8.651004,-9.16E-11,,
,8.653004,-9.10E-11,,
,8.655004,-9.00E-11,,
,8.657004,-8.96E-11,,
,8.659004,-8.90E-11,,
,8.661004,-8.91E-11,,
,8.663004,-8.91E-11,,
,8.665004,-8.93E-11,,
,8.667004,-8.93E-11,,
,8.669004,-8.95E-11,,
,8.671004,-8.98E-11,,
,8.673004,-9.00E-11,,
,8.675004,-9.02E-11,,
,8.677004,-9.04E-11,,
,8.679004,-9.10E-11,,
,8.681004,-9.13E-11,,
,8.683004,-9.15E-11,,
,8.685004,-9.14E-11,,
,8.687004,-9.12E-11,,
,8.689004,-9.08E-11,,
,8.691004,-9.07E-11,,
,8.693004,-9.07E-11,,
,8.695004,-9.06E-11,,
,8.697004,-9.03E-11,,
,8.699004,-9.00E-11,,
,8.701004,-8.97E-11,,
,8.703004,-8.93E-11,,
,8.705004,-8.91E-11,,
,8.707004,-8.91E-11,,
,8.709004,-8.95E-11,,
,8.711004,-9.03E-11,,
,8.713004,-9.12E-11,,
,8.715004,-9.21E-11,,
,8.717004,-9.26E-11,,
,8.719004,-9.27E-11,,
,8.721004,-9.21E-11,,
,8.723004,-9.15E-11,,
,8.725004,-9.07E-11,,
,8.727004,-9.01E-11,,
,8.729004,-8.95E-11,,
,8.731004,-8.91E-11,,
,8.733004,-8.90E-11,,
,8.735004,-8.88E-11,,
,8.737004,-8.88E-11,,
,8.739004,-8.92E-11,,
,8.741004,-9.00E-11,,
,8.743004,-9.05E-11,,
,8.745004,-9.11E-11,,
,8.747004,-9.16E-11,,
,8.749004,-9.20E-11,,
,8.751004,-9.18E-11,,
,8.753004,-9.13E-11,,
,8.755004,-9.05E-11,,
,8.757004,-8.95E-11,,
,8.759004,-8.85E-11,,
,8.761004,-8.76E-11,,
,8.763004,-8.70E-11,,
,8.765004,-8.64E-11,,
,8.767004,-8.59E-11,,
,8.769004,-8.58E-11,,
,8.771004,-8.59E-11,,
,8.773004,-8.63E-11,,
,8.775004,-8.68E-11,,
,8.777004,-8.73E-11,,
,8.779004,-8.79E-11,,
,8.781004,-8.82E-11,,
,8.783004,-8.79E-11,,
,8.785004,-8.73E-11,,
,8.787004,-8.63E-11,,
,8.789004,-8.53E-11,,
,8.791004,-8.39E-11,,
,8.793004,-8.31E-11,,
,8.795004,-8.24E-11,,
,8.797004,-8.24E-11,,
,8.799004,-8.23E-11,,
,8.801004,-8.25E-11,,
,8.803004,-8.23E-11,,
,8.805004,-8.23E-11,,
,8.807004,-8.23E-11,,
,8.809004,-8.23E-11,,
,8.811004,-8.23E-11,,
,8.813004,-8.24E-11,,
,8.815004,-8.26E-11,,
,8.817004,-8.25E-11,,
,8.819004,-8.22E-11,,
,8.821004,-8.20E-11,,
,8.823004,-8.22E-11,,
,8.825004,-8.23E-11,,
,8.827004,-8.23E-11,,
,8.829004,-8.23E-11,,
,8.831004,-8.20E-11,,
,8.833004,-8.17E-11,,
,8.835004,-8.12E-11,,
,8.837004,-8.09E-11,,
,8.839004,-8.05E-11,,
,8.841004,-8.06E-11,,
,8.843004,-8.11E-11,,
,8.845004,-8.20E-11,,
,8.847004,-8.32E-11,,
,8.849004,-8.39E-11,,
,8.851004,-8.44E-11,,
,8.853004,-8.42E-11,,
,8.855004,-8.44E-11,,
,8.857004,-8.39E-11,,
,8.859004,-8.37E-11,,
,8.861004,-8.29E-11,,
,8.863004,-8.24E-11,,
,8.865004,-8.17E-11,,
,8.867004,-8.13E-11,,
,8.869004,-8.11E-11,,
,8.871004,-8.10E-11,,
,8.873004,-8.09E-11,,
,8.875004,-8.12E-11,,
,8.877004,-8.19E-11,,
,8.879004,-8.33E-11,,
,8.881004,-8.44E-11,,
,8.883004,-8.51E-11,,
,8.885004,-8.52E-11,,
,8.887004,-8.53E-11,,
,8.889004,-8.52E-11,,
,8.891004,-8.51E-11,,
,8.893004,-8.48E-11,,
,8.895004,-8.47E-11,,
,8.897004,-8.46E-11,,
,8.899004,-8.44E-11,,
,8.901004,-8.43E-11,,
,8.903004,-8.43E-11,,
,8.905004,-8.45E-11,,
,8.907004,-8.52E-11,,
,8.909004,-8.58E-11,,
,8.911004,-8.68E-11,,
,8.913004,-8.78E-11,,
,8.915004,-8.89E-11,,
,8.917004,-8.97E-11,,
,8.919004,-8.97E-11,,
,8.921004,-8.95E-11,,
,8.923004,-8.90E-11,,
,8.925004,-8.87E-11,,
,8.927004,-8.84E-11,,
,8.929004,-8.78E-11,,
,8.931004,-8.74E-11,,
,8.933004,-8.71E-11,,
,8.935004,-8.72E-11,,
,8.937004,-8.75E-11,,
,8.939004,-8.82E-11,,
,8.941004,-8.89E-11,,
,8.943004,-9.01E-11,,
,8.945004,-9.13E-11,,
,8.947004,-9.27E-11,,
,8.949004,-9.33E-11,,
,8.951004,-9.35E-11,,
,8.953004,-9.30E-11,,
,8.955004,-9.25E-11,,
,8.957004,-9.17E-11,,
,8.959004,-9.12E-11,,
,8.961004,-9.10E-11,,
,8.963004,-9.11E-11,,
,8.965004,-9.12E-11,,
,8.967004,-9.11E-11,,
,8.969004,-9.10E-11,,
,8.971004,-9.12E-11,,
,8.973004,-9.15E-11,,
,8.975004,-9.21E-11,,
,8.977004,-9.27E-11,,
,8.979004,-9.35E-11,,
,8.981004,-9.40E-11,,
,8.983004,-9.44E-11,,
,8.985004,-9.41E-11,,
,8.987004,-9.39E-11,,
,8.989004,-9.33E-11,,
,8.991004,-9.32E-11,,
,8.993004,-9.29E-11,,
,8.995004,-9.27E-11,,
,8.997004,-9.22E-11,,
,8.999004,-9.20E-11,,
,9.001004,-9.19E-11,,
,9.003004,-9.18E-11,,
,9.005004,-9.20E-11,,
,9.007004,-9.22E-11,,
,9.009004,-9.26E-11,,
,9.011004,-9.27E-11,,
,9.013004,-9.31E-11,,
,9.015004,-9.32E-11,,
,9.017004,-9.29E-11,,
,9.019004,-9.20E-11,,
,9.021004,-9.14E-11,,
,9.023004,-9.12E-11,,
,9.025004,-9.08E-11,,
,9.027004,-9.07E-11,,
,9.029004,-9.05E-11,,
,9.031004,-9.06E-11,,
,9.033004,-9.03E-11,,
,9.035004,-8.97E-11,,
,9.037004,-8.87E-11,,
,9.039004,-8.79E-11,,
,9.041004,-8.72E-11,,
,9.043004,-8.69E-11,,
,9.045004,-8.68E-11,,
,9.047004,-8.72E-11,,
,9.049004,-8.75E-11,,
,9.051004,-8.75E-11,,
,9.053004,-8.72E-11,,
,9.055004,-8.70E-11,,
,9.057004,-8.68E-11,,
,9.059004,-8.63E-11,,
,9.061004,-8.56E-11,,
,9.063004,-8.52E-11,,
,9.065004,-8.47E-11,,
,9.067004,-8.42E-11,,
,9.069004,-8.29E-11,,
,9.071004,-8.24E-11,,
,9.073004,-8.18E-11,,
,9.075004,-8.19E-11,,
,9.077004,-8.19E-11,,
,9.079004,-8.23E-11,,
,9.081004,-8.27E-11,,
,9.083004,-8.27E-11,,
,9.085004,-8.25E-11,,
,9.087004,-8.20E-11,,
,9.089004,-8.16E-11,,
,9.091004,-8.11E-11,,
,9.093004,-8.05E-11,,
,9.095004,-8.00E-11,,
,9.097004,-7.97E-11,,
,9.099004,-7.93E-11,,
,9.101004,-7.87E-11,,
,9.103004,-7.81E-11,,
,9.105004,-7.76E-11,,
,9.107004,-7.74E-11,,
,9.109004,-7.75E-11,,
,9.111004,-7.80E-11,,
,9.113004,-7.86E-11,,
,9.115004,-7.95E-11,,
,9.117004,-7.99E-11,,
,9.119004,-8.02E-11,,
,9.121004,-8.01E-11,,
,9.123004,-8.01E-11,,
,9.125004,-7.97E-11,,
,9.127004,-7.93E-11,,
,9.129004,-7.87E-11,,
,9.131004,-7.83E-11,,
,9.133004,-7.79E-11,,
,9.135004,-7.73E-11,,
,9.137004,-7.69E-11,,
,9.139004,-7.68E-11,,
,9.141004,-7.70E-11,,
,9.143004,-7.78E-11,,
,9.145004,-7.86E-11,,
,9.147004,-7.96E-11,,
,9.149004,-8.04E-11,,
,9.151004,-8.05E-11,,
,9.153004,-8.06E-11,,
,9.155004,-8.03E-11,,
,9.157004,-8.02E-11,,
,9.159004,-7.97E-11,,
,9.161004,-7.90E-11,,
,9.163004,-7.83E-11,,
,9.165004,-7.74E-11,,
,9.167004,-7.68E-11,,
,9.169004,-7.62E-11,,
,9.171004,-7.61E-11,,
,9.173004,-7.64E-11,,
,9.175004,-7.71E-11,,
,9.177004,-7.83E-11,,
,9.179004,-7.97E-11,,
,9.181004,-8.10E-11,,
,9.183004,-8.17E-11,,
,9.185004,-8.18E-11,,
,9.187004,-8.13E-11,,
,9.189004,-8.06E-11,,
,9.191004,-8.00E-11,,
,9.193004,-7.96E-11,,
,9.195004,-7.93E-11,,
,9.197004,-7.87E-11,,
,9.199004,-7.83E-11,,
,9.201004,-7.79E-11,,
,9.203004,-7.76E-11,,
,9.205004,-7.79E-11,,
,9.207004,-7.82E-11,,
,9.209004,-7.90E-11,,
,9.211004,-7.98E-11,,
,9.213004,-8.09E-11,,
,9.215004,-8.17E-11,,
,9.217004,-8.20E-11,,
,9.219004,-8.19E-11,,
,9.221004,-8.16E-11,,
,9.223004,-8.14E-11,,
,9.225004,-8.12E-11,,
,9.227004,-8.10E-11,,
,9.229004,-8.06E-11,,
,9.231004,-8.03E-11,,
,9.233004,-7.98E-11,,
,9.235004,-7.97E-11,,
,9.237004,-7.97E-11,,
,9.239004,-7.97E-11,,
,9.241004,-7.99E-11,,
,9.243004,-8.02E-11,,
,9.245004,-8.11E-11,,
,9.247004,-8.19E-11,,
,9.249004,-8.27E-11,,
,9.251004,-8.26E-11,,
,9.253004,-8.24E-11,,
,9.255004,-8.18E-11,,
,9.257004,-8.17E-11,,
,9.259004,-8.11E-11,,
,9.261004,-8.08E-11,,
,9.263004,-8.04E-11,,
,9.265004,-8.02E-11,,
,9.267004,-8.00E-11,,
,9.269004,-8.00E-11,,
,9.271004,-8.03E-11,,
,9.273004,-8.08E-11,,
,9.275004,-8.11E-11,,
,9.277004,-8.16E-11,,
,9.279004,-8.22E-11,,
,9.281004,-8.27E-11,,
,9.283004,-8.27E-11,,
,9.285004,-8.26E-11,,
,9.287004,-8.25E-11,,
,9.289004,-8.25E-11,,
,9.291004,-8.25E-11,,
,9.293004,-8.28E-11,,
,9.295004,-8.30E-11,,
,9.297004,-8.33E-11,,
,9.299004,-8.32E-11,,
,9.301004,-8.31E-11,,
,9.303004,-8.27E-11,,
,9.305004,-8.26E-11,,
,9.307004,-8.26E-11,,
,9.309004,-8.29E-11,,
,9.311004,-8.33E-11,,
,9.313004,-8.41E-11,,
,9.315004,-8.51E-11,,
,9.317004,-8.57E-11,,
,9.319004,-8.62E-11,,
,9.321004,-8.64E-11,,
,9.323004,-8.63E-11,,
,9.325004,-8.60E-11,,
,9.327004,-8.55E-11,,
,9.329004,-8.53E-11,,
,9.331004,-8.52E-11,,
,9.333004,-8.47E-11,,
,9.335004,-8.44E-11,,
,9.337004,-8.41E-11,,
,9.339004,-8.46E-11,,
,9.341004,-8.49E-11,,
,9.343004,-8.55E-11,,
,9.345004,-8.59E-11,,
,9.347004,-8.67E-11,,
,9.349004,-8.69E-11,,
,9.351004,-8.69E-11,,
,9.353004,-8.66E-11,,
,9.355004,-8.61E-11,,
,9.357004,-8.55E-11,,
,9.359004,-8.52E-11,,
,9.361004,-8.52E-11,,
,9.363004,-8.53E-11,,
,9.365004,-8.48E-11,,
,9.367004,-8.45E-11,,
,9.369004,-8.40E-11,,
,9.371004,-8.38E-11,,
,9.373004,-8.34E-11,,
,9.375004,-8.37E-11,,
,9.377004,-8.43E-11,,
,9.379004,-8.51E-11,,
,9.381004,-8.58E-11,,
,9.383004,-8.59E-11,,
,9.385004,-8.57E-11,,
,9.387004,-8.49E-11,,
,9.389004,-8.44E-11,,
,9.391004,-8.38E-11,,
,9.393004,-8.32E-11,,
,9.395004,-8.26E-11,,
,9.397004,-8.24E-11,,
,9.399004,-8.18E-11,,
,9.401004,-8.13E-11,,
,9.403004,-8.09E-11,,
,9.405004,-8.13E-11,,
,9.407004,-8.15E-11,,
,9.409004,-8.19E-11,,
,9.411004,-8.23E-11,,
,9.413004,-8.30E-11,,
,9.415004,-8.34E-11,,
,9.417004,-8.33E-11,,
,9.419004,-8.29E-11,,
,9.421004,-8.22E-11,,
,9.423004,-8.14E-11,,
,9.425004,-8.06E-11,,
,9.427004,-8.01E-11,,
,9.429004,-7.99E-11,,
,9.431004,-7.99E-11,,
,9.433004,-8.01E-11,,
,9.435004,-8.00E-11,,
,9.437004,-8.02E-11,,
,9.439004,-8.02E-11,,
,9.441004,-8.08E-11,,
,9.443004,-8.12E-11,,
,9.445004,-8.19E-11,,
,9.447004,-8.24E-11,,
,9.449004,-8.24E-11,,
,9.451004,-8.20E-11,,
,9.453004,-8.12E-11,,
,9.455004,-8.04E-11,,
,9.457004,-7.93E-11,,
,9.459004,-7.86E-11,,
,9.461004,-7.82E-11,,
,9.463004,-7.84E-11,,
,9.465004,-7.86E-11,,
,9.467004,-7.87E-11,,
,9.469004,-7.87E-11,,
,9.471004,-7.87E-11,,
,9.473004,-7.88E-11,,
,9.475004,-7.89E-11,,
,9.477004,-7.89E-11,,
,9.479004,-7.90E-11,,
,9.481004,-7.90E-11,,
,9.483004,-7.88E-11,,
,9.485004,-7.84E-11,,
,9.487004,-7.78E-11,,
,9.489004,-7.75E-11,,
,9.491004,-7.71E-11,,
,9.493004,-7.72E-11,,
,9.495004,-7.75E-11,,
,9.497004,-7.82E-11,,
,9.499004,-7.86E-11,,
,9.501004,-7.87E-11,,
,9.503004,-7.84E-11,,
,9.505004,-7.79E-11,,
,9.507004,-7.73E-11,,
,9.509004,-7.71E-11,,
,9.511004,-7.73E-11,,
,9.513004,-7.75E-11,,
,9.515004,-7.80E-11,,
,9.517004,-7.83E-11,,
,9.519004,-7.86E-11,,
,9.521004,-7.87E-11,,
,9.523004,-7.88E-11,,
,9.525004,-7.90E-11,,
,9.527004,-7.95E-11,,
,9.529004,-7.98E-11,,
,9.531004,-8.02E-11,,
,9.533004,-8.02E-11,,
,9.535004,-8.00E-11,,
,9.537004,-7.96E-11,,
,9.539004,-7.93E-11,,
,9.541004,-7.90E-11,,
,9.543004,-7.89E-11,,
,9.545004,-7.94E-11,,
,9.547004,-8.01E-11,,
,9.549004,-8.09E-11,,
,9.551004,-8.14E-11,,
,9.553004,-8.19E-11,,
,9.555004,-8.25E-11,,
,9.557004,-8.30E-11,,
,9.559004,-8.32E-11,,
,9.561004,-8.35E-11,,
,9.563004,-8.37E-11,,
,9.565004,-8.35E-11,,
,9.567004,-8.30E-11,,
,9.569004,-8.23E-11,,
,9.571004,-8.17E-11,,
,9.573004,-8.17E-11,,
,9.575004,-8.20E-11,,
,9.577004,-8.27E-11,,
,9.579004,-8.37E-11,,
,9.581004,-8.49E-11,,
,9.583004,-8.62E-11,,
,9.585004,-8.69E-11,,
,9.587004,-8.71E-11,,
,9.589004,-8.69E-11,,
,9.591004,-8.67E-11,,
,9.593004,-8.62E-11,,
,9.595004,-8.57E-11,,
,9.597004,-8.52E-11,,
,9.599004,-8.48E-11,,
,9.601004,-8.45E-11,,
,9.603004,-8.42E-11,,
,9.605004,-8.39E-11,,
,9.607004,-8.41E-11,,
,9.609004,-8.41E-11,,
,9.611004,-8.43E-11,,
,9.613004,-8.45E-11,,
,9.615004,-8.53E-11,,
,9.617004,-8.55E-11,,
,9.619004,-8.56E-11,,
,9.621004,-8.51E-11,,
,9.623004,-8.49E-11,,
,9.625004,-8.46E-11,,
,9.627004,-8.45E-11,,
,9.629004,-8.43E-11,,
,9.631004,-8.40E-11,,
,9.633004,-8.32E-11,,
,9.635004,-8.24E-11,,
,9.637004,-8.14E-11,,
,9.639004,-8.09E-11,,
,9.641004,-8.03E-11,,
,9.643004,-8.04E-11,,
,9.645004,-8.12E-11,,
,9.647004,-8.24E-11,,
,9.649004,-8.35E-11,,
,9.651004,-8.41E-11,,
,9.653004,-8.43E-11,,
,9.655004,-8.41E-11,,
,9.657004,-8.35E-11,,
,9.659004,-8.26E-11,,
,9.661004,-8.14E-11,,
,9.663004,-8.02E-11,,
,9.665004,-7.91E-11,,
,9.667004,-7.81E-11,,
,9.669004,-7.73E-11,,
,9.671004,-7.70E-11,,
,9.673004,-7.72E-11,,
,9.675004,-7.76E-11,,
,9.677004,-7.85E-11,,
,9.679004,-7.96E-11,,
,9.681004,-8.05E-11,,
,9.683004,-8.12E-11,,
,9.685004,-8.11E-11,,
,9.687004,-8.06E-11,,
,9.689004,-7.98E-11,,
,9.691004,-7.88E-11,,
,9.693004,-7.78E-11,,
,9.695004,-7.67E-11,,
,9.697004,-7.57E-11,,
,9.699004,-7.49E-11,,
,9.701004,-7.41E-11,,
,9.703004,-7.38E-11,,
,9.705004,-7.41E-11,,
,9.707004,-7.51E-11,,
,9.709004,-7.61E-11,,
,9.711004,-7.74E-11,,
,9.713004,-7.85E-11,,
,9.715004,-7.93E-11,,
,9.717004,-7.90E-11,,
,9.719004,-7.80E-11,,
,9.721004,-7.65E-11,,
,9.723004,-7.49E-11,,
,9.725004,-7.31E-11,,
,9.727004,-7.18E-11,,
,9.729004,-7.10E-11,,
,9.731004,-7.10E-11,,
,9.733004,-7.16E-11,,
,9.735004,-7.23E-11,,
,9.737004,-7.28E-11,,
,9.739004,-7.30E-11,,
,9.741004,-7.36E-11,,
,9.743004,-7.40E-11,,
,9.745004,-7.44E-11,,
,9.747004,-7.47E-11,,
,9.749004,-7.51E-11,,
,9.751004,-7.50E-11,,
,9.753004,-7.50E-11,,
,9.755004,-7.47E-11,,
,9.757004,-7.51E-11,,
,9.759004,-7.50E-11,,
,9.761004,-7.51E-11,,
,9.763004,-7.50E-11,,
,9.765004,-7.53E-11,,
,9.767004,-7.55E-11,,
,9.769004,-7.58E-11,,
,9.771004,-7.58E-11,,
,9.773004,-7.62E-11,,
,9.775004,-7.66E-11,,
,9.777004,-7.72E-11,,
,9.779004,-7.79E-11,,
,9.781004,-7.86E-11,,
,9.783004,-7.94E-11,,
,9.785004,-7.94E-11,,
,9.787004,-7.93E-11,,
,9.789004,-7.89E-11,,
,9.791004,-7.89E-11,,
,9.793004,-7.89E-11,,
,9.795004,-7.91E-11,,
,9.797004,-7.97E-11,,
,9.799004,-8.01E-11,,
,9.801004,-8.03E-11,,
,9.803004,-8.02E-11,,
,9.805004,-8.05E-11,,
,9.807004,-8.10E-11,,
,9.809004,-8.18E-11,,
,9.811004,-8.25E-11,,
,9.813004,-8.33E-11,,
,9.815004,-8.40E-11,,
,9.817004,-8.44E-11,,
,9.819004,-8.43E-11,,
,9.821004,-8.43E-11,,
,9.823004,-8.44E-11,,
,9.825004,-8.47E-11,,
,9.827004,-8.52E-11,,
,9.829004,-8.57E-11,,
,9.831004,-8.67E-11,,
,9.833004,-8.72E-11,,
,9.835004,-8.75E-11,,
,9.837004,-8.75E-11,,
,9.839004,-8.77E-11,,
,9.841004,-8.79E-11,,
,9.843004,-8.79E-11,,
,9.845004,-8.85E-11,,
,9.847004,-8.92E-11,,
,9.849004,-9.01E-11,,
,9.851004,-9.03E-11,,
,9.853004,-9.04E-11,,
,9.855004,-9.06E-11,,
,9.857004,-9.07E-11,,
,9.859004,-9.10E-11,,
,9.861004,-9.12E-11,,
,9.863004,-9.16E-11,,
,9.865004,-9.20E-11,,
,9.867004,-9.20E-11,,
,9.869004,-9.19E-11,,
,9.871004,-9.16E-11,,
,9.873004,-9.15E-11,,
,9.875004,-9.15E-11,,
,9.877004,-9.16E-11,,
,9.879004,-9.18E-11,,
,9.881004,-9.21E-11,,
,9.883004,-9.24E-11,,
,9.885004,-9.22E-11,,
,9.887004,-9.19E-11,,
,9.889004,-9.16E-11,,
,9.891004,-9.15E-11,,
,9.893004,-9.14E-11,,
,9.895004,-9.13E-11,,
,9.897004,-9.12E-11,,
,9.899004,-9.10E-11,,
,9.901004,-9.06E-11,,
,9.903004,-9.03E-11,,
,9.905004,-9.01E-11,,
,9.907004,-8.99E-11,,
,9.909004,-8.98E-11,,
,9.911004,-8.98E-11,,
,9.913004,-8.98E-11,,
,9.915004,-8.98E-11,,
,9.917004,-8.95E-11,,
,9.919004,-8.90E-11,,
,9.921004,-8.83E-11,,
,9.923004,-8.75E-11,,
,9.925004,-8.68E-11,,
,9.927004,-8.62E-11,,
,9.929004,-8.60E-11,,
,9.931004,-8.58E-11,,
,9.933004,-8.55E-11,,
,9.935004,-8.47E-11,,
,9.937004,-8.40E-11,,
,9.939004,-8.33E-11,,
,9.941004,-8.27E-11,,
,9.943004,-8.20E-11,,
,9.945004,-8.12E-11,,
,9.947004,-8.05E-11,,
,9.949004,-8.00E-11,,
,9.951004,-7.97E-11,,
,9.953004,-7.93E-11,,
,9.955004,-7.88E-11,,
,9.957004,-7.85E-11,,
,9.959004,-7.83E-11,,
,9.961004,-7.79E-11,,
,9.963004,-7.76E-11,,
,9.965004,-7.71E-11,,
,9.967004,-7.62E-11,,
,9.969004,-7.50E-11,,
,9.971004,-7.37E-11,,
,9.973004,-7.28E-11,,
,9.975004,-7.20E-11,,
,9.977004,-7.17E-11,,
,9.979004,-7.17E-11,,
,9.981004,-7.20E-11,,
,9.983004,-7.20E-11,,
,9.985004,-7.17E-11,,
,9.987004,-7.14E-11,,
,9.989004,-7.08E-11,,
,9.991004,-7.02E-11,,
,9.993004,-6.95E-11,,
,9.995004,-6.88E-11,,
,9.997004,-6.80E-11,,
,9.999004,-6.72E-11,,
,10.001004,-6.62E-11,,
,10.003004,-6.53E-11,,
,10.005004,-6.50E-11,,
,10.007004,-6.51E-11,,
,10.009004,-6.54E-11,,
,10.011004,-6.56E-11,,
,10.013004,-6.59E-11,,
,10.015004,-6.62E-11,,
,10.017004,-6.56E-11,,
,10.019004,-6.48E-11,,
,10.021004,-6.37E-11,,
,10.023004,-6.27E-11,,
,10.025004,-6.20E-11,,
,10.027004,-6.14E-11,,
,10.029004,-6.13E-11,,
,10.031004,-6.12E-11,,
,10.033004,-6.10E-11,,
,10.035004,-6.05E-11,,
,10.037004,-5.99E-11,,
,10.039004,-5.95E-11,,
,10.041004,-5.90E-11,,
,10.043004,-5.89E-11,,
,10.045004,-5.85E-11,,
,10.047004,-5.89E-11,,
,10.049004,-5.89E-11,,
,10.051004,-5.87E-11,,
,10.053004,-5.83E-11,,
,10.055004,-5.78E-11,,
,10.057004,-5.74E-11,,
,10.059004,-5.67E-11,,
,10.061004,-5.64E-11,,
,10.063004,-5.63E-11,,
,10.065004,-5.64E-11,,
,10.067004,-5.62E-11,,
,10.069004,-5.57E-11,,
,10.071004,-5.55E-11,,
,10.073004,-5.53E-11,,
,10.075004,-5.53E-11,,
,10.077004,-5.49E-11,,
,10.079004,-5.49E-11,,
,10.081004,-5.50E-11,,
,10.083004,-5.50E-11,,
,10.085004,-5.47E-11,,
,10.087004,-5.43E-11,,
,10.089004,-5.45E-11,,
,10.091004,-5.43E-11,,
,10.093004,-5.41E-11,,
,10.095004,-5.39E-11,,
,10.097004,-5.40E-11,,
,10.099004,-5.38E-11,,
,10.101004,-5.35E-11,,
,10.103004,-5.27E-11,,
,10.105004,-5.23E-11,,
,10.107004,-5.22E-11,,
,10.109004,-5.23E-11,,
,10.111004,-5.27E-11,,
,10.113004,-5.31E-11,,
,10.115004,-5.35E-11,,
,10.117004,-5.34E-11,,
,10.119004,-5.32E-11,,
,10.121004,-5.27E-11,,
,10.123004,-5.24E-11,,
,10.125004,-5.21E-11,,
,10.127004,-5.17E-11,,
,10.129004,-5.17E-11,,
,10.131004,-5.14E-11,,
,10.133004,-5.16E-11,,
,10.135004,-5.13E-11,,
,10.137004,-5.14E-11,,
,10.139004,-5.18E-11,,
,10.141004,-5.21E-11,,
,10.143004,-5.23E-11,,
,10.145004,-5.24E-11,,
,10.147004,-5.27E-11,,
,10.149004,-5.25E-11,,
,10.151004,-5.21E-11,,
,10.153004,-5.11E-11,,
,10.155004,-5.08E-11,,
,10.157004,-5.04E-11,,
,10.159004,-5.07E-11,,
,10.161004,-5.09E-11,,
,10.163004,-5.19E-11,,
,10.165004,-5.23E-11,,
,10.167004,-5.30E-11,,
,10.169004,-5.31E-11,,
,10.171004,-5.31E-11,,
,10.173004,-5.30E-11,,
,10.175004,-5.28E-11,,
,10.177004,-5.27E-11,,
,10.179004,-5.26E-11,,
,10.181004,-5.25E-11,,
,10.183004,-5.24E-11,,
,10.185004,-5.22E-11,,
,10.187004,-5.20E-11,,
,10.189004,-5.22E-11,,
,10.191004,-5.23E-11,,
,10.193004,-5.26E-11,,
,10.195004,-5.25E-11,,
,10.197004,-5.31E-11,,
,10.199004,-5.33E-11,,
,10.201004,-5.36E-11,,
,10.203004,-5.34E-11,,
,10.205004,-5.33E-11,,
,10.207004,-5.32E-11,,
,10.209004,-5.31E-11,,
,10.211004,-5.28E-11,,
,10.213004,-5.30E-11,,
,10.215004,-5.30E-11,,
,10.217004,-5.28E-11,,
,10.219004,-5.25E-11,,
,10.221004,-5.23E-11,,
,10.223004,-5.25E-11,,
,10.225004,-5.30E-11,,
,10.227004,-5.37E-11,,
,10.229004,-5.47E-11,,
,10.231004,-5.53E-11,,
,10.233004,-5.57E-11,,
,10.235004,-5.52E-11,,
,10.237004,-5.48E-11,,
,10.239004,-5.39E-11,,
,10.241004,-5.33E-11,,
,10.243004,-5.24E-11,,
,10.245004,-5.19E-11,,
,10.247004,-5.19E-11,,
,10.249004,-5.24E-11,,
,10.251004,-5.27E-11,,
,10.253004,-5.30E-11,,
,10.255004,-5.33E-11,,
,10.257004,-5.39E-11,,
,10.259004,-5.47E-11,,
,10.261004,-5.52E-11,,
,10.263004,-5.55E-11,,
,10.265004,-5.55E-11,,
,10.267004,-5.48E-11,,
,10.269004,-5.37E-11,,
,10.271004,-5.23E-11,,
,10.273004,-5.13E-11,,
,10.275004,-5.05E-11,,
,10.277004,-5.04E-11,,
,10.279004,-5.05E-11,,
,10.281004,-5.11E-11,,
,10.283004,-5.14E-11,,
,10.285004,-5.19E-11,,
,10.287004,-5.23E-11,,
,10.289004,-5.27E-11,,
,10.291004,-5.31E-11,,
,10.293004,-5.33E-11,,
,10.295004,-5.36E-11,,
,10.297004,-5.34E-11,,
,10.299004,-5.27E-11,,
,10.301004,-5.14E-11,,
,10.303004,-5.03E-11,,
,10.305004,-4.93E-11,,
,10.307004,-4.89E-11,,
,10.309004,-4.86E-11,,
,10.311004,-4.86E-11,,
,10.313004,-4.88E-11,,
,10.315004,-4.96E-11,,
,10.317004,-5.01E-11,,
,10.319004,-5.04E-11,,
,10.321004,-5.03E-11,,
,10.323004,-5.05E-11,,
,10.325004,-5.06E-11,,
,10.327004,-5.05E-11,,
,10.329004,-5.03E-11,,
,10.331004,-4.99E-11,,
,10.333004,-4.95E-11,,
,10.335004,-4.87E-11,,
,10.337004,-4.78E-11,,
,10.339004,-4.72E-11,,
,10.341004,-4.69E-11,,
,10.343004,-4.70E-11,,
,10.345004,-4.76E-11,,
,10.347004,-4.82E-11,,
,10.349004,-4.88E-11,,
,10.351004,-4.88E-11,,
,10.353004,-4.86E-11,,
,10.355004,-4.82E-11,,
,10.357004,-4.82E-11,,
,10.359004,-4.83E-11,,
,10.361004,-4.84E-11,,
,10.363004,-4.87E-11,,
,10.365004,-4.88E-11,,
,10.367004,-4.88E-11,,
,10.369004,-4.86E-11,,
,10.371004,-4.83E-11,,
,10.373004,-4.81E-11,,
,10.375004,-4.83E-11,,
,10.377004,-4.88E-11,,
,10.379004,-4.96E-11,,
,10.381004,-5.03E-11,,
,10.383004,-5.07E-11,,
,10.385004,-5.10E-11,,
,10.387004,-5.11E-11,,
,10.389004,-5.17E-11,,
,10.391004,-5.21E-11,,
,10.393004,-5.24E-11,,
,10.395004,-5.30E-11,,
,10.397004,-5.36E-11,,
,10.399004,-5.43E-11,,
,10.401004,-5.45E-11,,
,10.403004,-5.43E-11,,
,10.405004,-5.45E-11,,
,10.407004,-5.49E-11,,
,10.409004,-5.53E-11,,
,10.411004,-5.60E-11,,
,10.413004,-5.67E-11,,
,10.415004,-5.76E-11,,
,10.417004,-5.81E-11,,
,10.419004,-5.85E-11,,
,10.421004,-5.91E-11,,
,10.423004,-5.98E-11,,
,10.425004,-6.05E-11,,
,10.427004,-6.11E-11,,
,10.429004,-6.19E-11,,
,10.431004,-6.27E-11,,
,10.433004,-6.33E-11,,
,10.435004,-6.33E-11,,
,10.437004,-6.33E-11,,
,10.439004,-6.32E-11,,
,10.441004,-6.33E-11,,
,10.443004,-6.33E-11,,
,10.445004,-6.39E-11,,
,10.447004,-6.48E-11,,
,10.449004,-6.57E-11,,
,10.451004,-6.62E-11,,
,10.453004,-6.65E-11,,
,10.455004,-6.71E-11,,
,10.457004,-6.78E-11,,
,10.459004,-6.83E-11,,
,10.461004,-6.85E-11,,
,10.463004,-6.88E-11,,
,10.465004,-6.91E-11,,
,10.467004,-6.89E-11,,
,10.469004,-6.85E-11,,
,10.471004,-6.81E-11,,
,10.473004,-6.78E-11,,
,10.475004,-6.81E-11,,
,10.477004,-6.84E-11,,
,10.479004,-6.92E-11,,
,10.481004,-6.97E-11,,
,10.483004,-7.02E-11,,
,10.485004,-7.02E-11,,
,10.487004,-7.02E-11,,
,10.489004,-7.02E-11,,
,10.491004,-7.05E-11,,
,10.493004,-7.03E-11,,
,10.495004,-7.03E-11,,
,10.497004,-7.03E-11,,
,10.499004,-7.03E-11,,
,10.501004,-6.97E-11,,
,10.503004,-6.88E-11,,
,10.505004,-6.82E-11,,
,10.507004,-6.79E-11,,
,10.509004,-6.79E-11,,
,10.511004,-6.78E-11,,
,10.513004,-6.83E-11,,
,10.515004,-6.84E-11,,
,10.517004,-6.85E-11,,
,10.519004,-6.83E-11,,
,10.521004,-6.81E-11,,
,10.523004,-6.80E-11,,
,10.525004,-6.77E-11,,
,10.527004,-6.76E-11,,
,10.529004,-6.74E-11,,
,10.531004,-6.76E-11,,
,10.533004,-6.72E-11,,
,10.535004,-6.68E-11,,
,10.537004,-6.59E-11,,
,10.539004,-6.55E-11,,
,10.541004,-6.50E-11,,
,10.543004,-6.48E-11,,
,10.545004,-6.48E-11,,
,10.547004,-6.52E-11,,
,10.549004,-6.54E-11,,
,10.551004,-6.53E-11,,
,10.553004,-6.52E-11,,
,10.555004,-6.51E-11,,
,10.557004,-6.50E-11,,
,10.559004,-6.48E-11,,
,10.561004,-6.47E-11,,
,10.563004,-6.45E-11,,
,10.565004,-6.45E-11,,
,10.567004,-6.41E-11,,
,10.569004,-6.32E-11,,
,10.571004,-6.18E-11,,
,10.573004,-6.08E-11,,
,10.575004,-6.05E-11,,
,10.577004,-6.04E-11,,
,10.579004,-6.06E-11,,
,10.581004,-6.09E-11,,
,10.583004,-6.11E-11,,
,10.585004,-6.11E-11,,
,10.587004,-6.11E-11,,
,10.589004,-6.14E-11,,
,10.591004,-6.18E-11,,
,10.593004,-6.18E-11,,
,10.595004,-6.13E-11,,
,10.597004,-6.06E-11,,
,10.599004,-5.96E-11,,
,10.601004,-5.83E-11,,
,10.603004,-5.70E-11,,
,10.605004,-5.62E-11,,
,10.607004,-5.60E-11,,
,10.609004,-5.61E-11,,
,10.611004,-5.67E-11,,
,10.613004,-5.76E-11,,
,10.615004,-5.87E-11,,
,10.617004,-5.92E-11,,
,10.619004,-5.92E-11,,
,10.621004,-5.91E-11,,
,10.623004,-5.87E-11,,
,10.625004,-5.84E-11,,
,10.627004,-5.79E-11,,
,10.629004,-5.78E-11,,
,10.631004,-5.75E-11,,
,10.633004,-5.70E-11,,
,10.635004,-5.64E-11,,
,10.637004,-5.61E-11,,
,10.639004,-5.59E-11,,
,10.641004,-5.56E-11,,
,10.643004,-5.59E-11,,
,10.645004,-5.61E-11,,
,10.647004,-5.66E-11,,
,10.649004,-5.69E-11,,
,10.651004,-5.74E-11,,
,10.653004,-5.78E-11,,
,10.655004,-5.80E-11,,
,10.657004,-5.82E-11,,
,10.659004,-5.84E-11,,
,10.661004,-5.84E-11,,
,10.663004,-5.84E-11,,
,10.665004,-5.82E-11,,
,10.667004,-5.78E-11,,
,10.669004,-5.70E-11,,
,10.671004,-5.63E-11,,
,10.673004,-5.61E-11,,
,10.675004,-5.61E-11,,
,10.677004,-5.66E-11,,
,10.679004,-5.75E-11,,
,10.681004,-5.85E-11,,
,10.683004,-5.96E-11,,
,10.685004,-6.01E-11,,
,10.687004,-6.07E-11,,
,10.689004,-6.08E-11,,
,10.691004,-6.09E-11,,
,10.693004,-6.09E-11,,
,10.695004,-6.06E-11,,
,10.697004,-6.03E-11,,
,10.699004,-5.96E-11,,
,10.701004,-5.92E-11,,
,10.703004,-5.86E-11,,
,10.705004,-5.83E-11,,
,10.707004,-5.81E-11,,
,10.709004,-5.82E-11,,
,10.711004,-5.85E-11,,
,10.713004,-5.91E-11,,
,10.715004,-5.98E-11,,
,10.717004,-6.03E-11,,
,10.719004,-6.04E-11,,
,10.721004,-6.01E-11,,
,10.723004,-6.01E-11,,
,10.725004,-6.03E-11,,
,10.727004,-6.03E-11,,
,10.729004,-6.05E-11,,
,10.731004,-6.06E-11,,
,10.733004,-6.07E-11,,
,10.735004,-6.00E-11,,
,10.737004,-5.95E-11,,
,10.739004,-5.91E-11,,
,10.741004,-5.91E-11,,
,10.743004,-5.91E-11,,
,10.745004,-5.93E-11,,
,10.747004,-5.99E-11,,
,10.749004,-6.06E-11,,
,10.751004,-6.10E-11,,
,10.753004,-6.11E-11,,
,10.755004,-6.11E-11,,
,10.757004,-6.12E-11,,
,10.759004,-6.12E-11,,
,10.761004,-6.12E-11,,
,10.763004,-6.12E-11,,
,10.765004,-6.11E-11,,
,10.767004,-6.08E-11,,
,10.769004,-6.00E-11,,
,10.771004,-5.95E-11,,
,10.773004,-5.93E-11,,
,10.775004,-5.93E-11,,
,10.777004,-5.95E-11,,
,10.779004,-5.99E-11,,
,10.781004,-6.06E-11,,
,10.783004,-6.07E-11,,
,10.785004,-6.05E-11,,
,10.787004,-6.01E-11,,
,10.789004,-6.01E-11,,
,10.791004,-6.03E-11,,
,10.793004,-6.03E-11,,
,10.795004,-6.03E-11,,
,10.797004,-6.06E-11,,
,10.799004,-6.08E-11,,
,10.801004,-6.08E-11,,
,10.803004,-6.01E-11,,
,10.805004,-5.98E-11,,
,10.807004,-5.95E-11,,
,10.809004,-5.96E-11,,
,10.811004,-5.98E-11,,
,10.813004,-6.03E-11,,
,10.815004,-6.08E-11,,
,10.817004,-6.07E-11,,
,10.819004,-6.06E-11,,
,10.821004,-6.04E-11,,
,10.823004,-6.05E-11,,
,10.825004,-6.07E-11,,
,10.827004,-6.09E-11,,
,10.829004,-6.14E-11,,
,10.831004,-6.19E-11,,
,10.833004,-6.19E-11,,
,10.835004,-6.15E-11,,
,10.837004,-6.07E-11,,
,10.839004,-6.00E-11,,
,10.841004,-5.96E-11,,
,10.843004,-5.98E-11,,
,10.845004,-6.03E-11,,
,10.847004,-6.09E-11,,
,10.849004,-6.12E-11,,
,10.851004,-6.15E-11,,
,10.853004,-6.15E-11,,
,10.855004,-6.16E-11,,
,10.857004,-6.19E-11,,
,10.859004,-6.19E-11,,
,10.861004,-6.21E-11,,
,10.863004,-6.19E-11,,
,10.865004,-6.16E-11,,
,10.867004,-6.08E-11,,
,10.869004,-6.01E-11,,
,10.871004,-5.96E-11,,
