5/15/2019, 10:26:01 AM ,,,
 Current Sensitivity ,1.00E-09,,,
 This file comes from It only measurement ,0.00E+00,,,
 Sampling rate ,500,,,
 Number of samples per channel ,-1,,,
 No filter from Labview , , , ,
 , ,,,
 ***End_of_Header*** ,,,,
 , Time , Current , Filtered Current , 
,-0.001996,1.24E-12,,
,3.86E-06,2.92E-12,,
,0.002004,4.59E-12,,
,0.004004,5.13E-12,,
,0.006004,5.24E-12,,
,0.008004,5.45E-12,,
,0.010004,5.77E-12,,
,0.012004,6.42E-12,,
,0.014004,7.17E-12,,
,0.016004,7.81E-12,,
,0.018004,8.24E-12,,
,0.020004,7.92E-12,,
,0.022004,7.06E-12,,
,0.024004,5.56E-12,,
,0.026004,4.27E-12,,
,0.028004,3.52E-12,,
,0.030004,3.52E-12,,
,0.032004,3.84E-12,,
,0.034004,4.48E-12,,
,0.036004,5.13E-12,,
,0.038004,5.88E-12,,
,0.040004,5.99E-12,,
,0.042004,5.99E-12,,
,0.044004,5.66E-12,,
,0.046004,5.77E-12,,
,0.048004,5.77E-12,,
,0.050004,6.20E-12,,
,0.052004,6.31E-12,,
,0.054004,6.20E-12,,
,0.056004,5.45E-12,,
,0.058004,4.59E-12,,
,0.060004,3.84E-12,,
,0.062004,3.73E-12,,
,0.064004,3.95E-12,,
,0.066004,4.59E-12,,
,0.068004,5.02E-12,,
,0.070004,5.45E-12,,
,0.072004,5.24E-12,,
,0.074004,5.13E-12,,
,0.076004,4.70E-12,,
,0.078004,4.59E-12,,
,0.080004,4.38E-12,,
,0.082004,4.38E-12,,
,0.084004,4.70E-12,,
,0.086004,4.91E-12,,
,0.088004,4.81E-12,,
,0.090004,3.84E-12,,
,0.092004,2.77E-12,,
,0.094004,1.91E-12,,
,0.096004,1.59E-12,,
,0.098004,1.69E-12,,
,0.100004,1.91E-12,,
,0.102004,2.12E-12,,
,0.104004,2.23E-12,,
,0.106004,1.91E-12,,
,0.108004,1.69E-12,,
,0.110004,1.37E-12,,
,0.112004,1.48E-12,,
,0.114004,1.80E-12,,
,0.116004,2.23E-12,,
,0.118004,2.87E-12,,
,0.120004,2.87E-12,,
,0.122004,2.34E-12,,
,0.124004,1.16E-12,,
,0.126004,1.89E-13,,
,0.128004,-6.69E-13,,
,0.130004,-1.31E-12,,
,0.132004,-1.64E-12,,
,0.134004,-1.53E-12,,
,0.136004,-8.84E-13,,
,0.138004,-4.55E-13,,
,0.140004,-3.47E-13,,
,0.142004,-5.62E-13,,
,0.144004,-4.55E-13,,
,0.146004,-2.53E-14,,
,0.148004,4.04E-13,,
,0.150004,5.11E-13,,
,0.152004,1.89E-13,,
,0.154004,-3.47E-13,,
,0.156004,-1.42E-12,,
,0.158004,-2.71E-12,,
,0.160004,-3.78E-12,,
,0.162004,-4.21E-12,,
,0.164004,-3.68E-12,,
,0.166004,-3.14E-12,,
,0.168004,-2.28E-12,,
,0.170004,-2.07E-12,,
,0.172004,-1.85E-12,,
,0.174004,-2.49E-12,,
,0.176004,-2.92E-12,,
,0.178004,-3.14E-12,,
,0.180004,-2.71E-12,,
,0.182004,-2.28E-12,,
,0.184004,-1.74E-12,,
,0.186004,-1.42E-12,,
,0.188004,-1.31E-12,,
,0.190004,-1.85E-12,,
,0.192004,-2.49E-12,,
,0.194004,-3.14E-12,,
,0.196004,-3.25E-12,,
,0.198004,-2.92E-12,,
,0.200004,-2.07E-12,,
,0.202004,-1.31E-12,,
,0.204004,-7.77E-13,,
,0.206004,-7.77E-13,,
,0.208004,-9.92E-13,,
,0.210004,-1.31E-12,,
,0.212004,-9.92E-13,,
,0.214004,-5.62E-13,,
,0.216004,8.20E-14,,
,0.218004,1.89E-13,,
,0.220004,4.04E-13,,
,0.222004,-2.40E-13,,
,0.224004,-9.92E-13,,
,0.226004,-1.96E-12,,
,0.228004,-2.07E-12,,
,0.230004,-1.96E-12,,
,0.232004,-1.64E-12,,
,0.234004,-1.42E-12,,
,0.236004,-1.10E-12,,
,0.238004,-1.31E-12,,
,0.240004,-1.85E-12,,
,0.242004,-2.49E-12,,
,0.244004,-2.71E-12,,
,0.246004,-2.60E-12,,
,0.248004,-2.17E-12,,
,0.250004,-1.42E-12,,
,0.252004,-6.69E-13,,
,0.254004,-5.62E-13,,
,0.256004,-9.92E-13,,
,0.258004,-1.96E-12,,
,0.260004,-2.82E-12,,
,0.262004,-3.68E-12,,
,0.264004,-4.00E-12,,
,0.266004,-3.78E-12,,
,0.268004,-3.46E-12,,
,0.270004,-3.03E-12,,
,0.272004,-2.92E-12,,
,0.274004,-2.71E-12,,
,0.276004,-2.71E-12,,
,0.278004,-2.60E-12,,
,0.280004,-2.28E-12,,
,0.282004,-1.85E-12,,
,0.284004,-1.31E-12,,
,0.286004,-1.31E-12,,
,0.288004,-1.74E-12,,
,0.290004,-2.92E-12,,
,0.292004,-4.10E-12,,
,0.294004,-4.96E-12,,
,0.296004,-5.39E-12,,
,0.298004,-5.07E-12,,
,0.300004,-4.96E-12,,
,0.302004,-4.10E-12,,
,0.304004,-4.10E-12,,
,0.306004,-4.10E-12,,
,0.308004,-4.75E-12,,
,0.310004,-5.07E-12,,
,0.312004,-5.07E-12,,
,0.314004,-4.86E-12,,
,0.316004,-4.43E-12,,
,0.318004,-4.00E-12,,
,0.320004,-4.00E-12,,
,0.322004,-4.32E-12,,
,0.324004,-5.18E-12,,
,0.326004,-5.82E-12,,
,0.328004,-6.25E-12,,
,0.330004,-6.36E-12,,
,0.332004,-6.04E-12,,
,0.334004,-5.39E-12,,
,0.336004,-4.53E-12,,
,0.338004,-4.10E-12,,
,0.340004,-4.00E-12,,
,0.342004,-4.00E-12,,
,0.344004,-3.89E-12,,
,0.346004,-3.68E-12,,
,0.348004,-3.35E-12,,
,0.350004,-2.71E-12,,
,0.352004,-2.07E-12,,
,0.354004,-1.64E-12,,
,0.356004,-1.74E-12,,
,0.358004,-2.07E-12,,
,0.360004,-2.17E-12,,
,0.362004,-1.96E-12,,
,0.364004,-1.31E-12,,
,0.366004,-4.55E-13,,
,0.368004,5.11E-13,,
,0.370004,1.26E-12,,
,0.372004,1.26E-12,,
,0.374004,9.41E-13,,
,0.376004,7.26E-13,,
,0.378004,9.41E-13,,
,0.380004,1.37E-12,,
,0.382004,2.01E-12,,
,0.384004,2.98E-12,,
,0.386004,3.73E-12,,
,0.388004,4.16E-12,,
,0.390004,3.95E-12,,
,0.392004,3.41E-12,,
,0.394004,2.77E-12,,
,0.396004,2.23E-12,,
,0.398004,2.12E-12,,
,0.400004,1.91E-12,,
,0.402004,2.12E-12,,
,0.404004,2.23E-12,,
,0.406004,2.44E-12,,
,0.408004,2.34E-12,,
,0.410004,2.44E-12,,
,0.412004,2.44E-12,,
,0.414004,2.98E-12,,
,0.416004,3.41E-12,,
,0.418004,3.84E-12,,
,0.420004,3.84E-12,,
,0.422004,3.41E-12,,
,0.424004,2.66E-12,,
,0.426004,1.48E-12,,
,0.428004,6.19E-13,,
,0.430004,2.97E-13,,
,0.432004,7.26E-13,,
,0.434004,1.26E-12,,
,0.436004,1.59E-12,,
,0.438004,1.16E-12,,
,0.440004,4.04E-13,,
,0.442004,-5.62E-13,,
,0.444004,-1.21E-12,,
,0.446004,-1.31E-12,,
,0.448004,-8.84E-13,,
,0.450004,-1.33E-13,,
,0.452004,4.04E-13,,
,0.454004,2.97E-13,,
,0.456004,-4.55E-13,,
,0.458004,-1.64E-12,,
,0.460004,-2.49E-12,,
,0.462004,-3.14E-12,,
,0.464004,-3.57E-12,,
,0.466004,-3.89E-12,,
,0.468004,-3.89E-12,,
,0.470004,-3.89E-12,,
,0.472004,-4.32E-12,,
,0.474004,-4.86E-12,,
,0.476004,-5.29E-12,,
,0.478004,-5.29E-12,,
,0.480004,-5.29E-12,,
,0.482004,-5.18E-12,,
,0.484004,-5.07E-12,,
,0.486004,-5.18E-12,,
,0.488004,-5.72E-12,,
,0.490004,-6.68E-12,,
,0.492004,-7.75E-12,,
,0.494004,-8.61E-12,,
,0.496004,-8.94E-12,,
,0.498004,-9.04E-12,,
,0.500004,-8.94E-12,,
,0.502004,-8.94E-12,,
,0.504004,-9.15E-12,,
,0.506004,-9.90E-12,,
,0.508004,-1.08E-11,,
,0.510004,-1.09E-11,,
,0.512004,-1.05E-11,,
,0.514004,-9.90E-12,,
,0.516004,-9.58E-12,,
,0.518004,-9.15E-12,,
,0.520004,-9.04E-12,,
,0.522004,-9.15E-12,,
,0.524004,-1.00E-11,,
,0.526004,-1.09E-11,,
,0.528004,-1.16E-11,,
,0.530004,-1.19E-11,,
,0.532004,-1.19E-11,,
,0.534004,-1.19E-11,,
,0.536004,-1.17E-11,,
,0.538004,-1.16E-11,,
,0.540004,-1.17E-11,,
,0.542004,-1.16E-11,,
,0.544004,-1.12E-11,,
,0.546004,-1.04E-11,,
,0.548004,-9.69E-12,,
,0.550004,-9.26E-12,,
,0.552004,-8.72E-12,,
,0.554004,-8.51E-12,,
,0.556004,-9.15E-12,,
,0.558004,-1.01E-11,,
,0.560004,-1.11E-11,,
,0.562004,-1.12E-11,,
,0.564004,-1.13E-11,,
,0.566004,-1.12E-11,,
,0.568004,-1.10E-11,,
,0.570004,-1.04E-11,,
,0.572004,-1.00E-11,,
,0.574004,-9.90E-12,,
,0.576004,-9.58E-12,,
,0.578004,-9.15E-12,,
,0.580004,-8.18E-12,,
,0.582004,-7.33E-12,,
,0.584004,-6.47E-12,,
,0.586004,-5.93E-12,,
,0.588004,-6.04E-12,,
,0.590004,-6.68E-12,,
,0.592004,-7.65E-12,,
,0.594004,-8.29E-12,,
,0.596004,-8.51E-12,,
,0.598004,-8.40E-12,,
,0.600004,-7.75E-12,,
,0.602004,-6.90E-12,,
,0.604004,-6.04E-12,,
,0.606004,-5.50E-12,,
,0.608004,-5.07E-12,,
,0.610004,-4.75E-12,,
,0.612004,-4.64E-12,,
,0.614004,-4.21E-12,,
,0.616004,-3.35E-12,,
,0.618004,-2.60E-12,,
,0.620004,-2.49E-12,,
,0.622004,-3.46E-12,,
,0.624004,-4.64E-12,,
,0.626004,-5.61E-12,,
,0.628004,-5.93E-12,,
,0.630004,-5.72E-12,,
,0.632004,-5.50E-12,,
,0.634004,-5.29E-12,,
,0.636004,-5.18E-12,,
,0.638004,-5.07E-12,,
,0.640004,-5.07E-12,,
,0.642004,-5.18E-12,,
,0.644004,-5.18E-12,,
,0.646004,-4.75E-12,,
,0.648004,-4.32E-12,,
,0.650004,-3.68E-12,,
,0.652004,-3.25E-12,,
,0.654004,-3.03E-12,,
,0.656004,-3.57E-12,,
,0.658004,-4.75E-12,,
,0.660004,-5.93E-12,,
,0.662004,-6.47E-12,,
,0.664004,-6.57E-12,,
,0.666004,-6.14E-12,,
,0.668004,-5.82E-12,,
,0.670004,-5.61E-12,,
,0.672004,-5.72E-12,,
,0.674004,-5.82E-12,,
,0.676004,-5.61E-12,,
,0.678004,-5.29E-12,,
,0.680004,-4.96E-12,,
,0.682004,-4.53E-12,,
,0.684004,-4.10E-12,,
,0.686004,-3.89E-12,,
,0.688004,-4.43E-12,,
,0.690004,-5.39E-12,,
,0.692004,-6.68E-12,,
,0.694004,-7.43E-12,,
,0.696004,-8.08E-12,,
,0.698004,-8.08E-12,,
,0.700004,-8.08E-12,,
,0.702004,-7.75E-12,,
,0.704004,-7.65E-12,,
,0.706004,-7.54E-12,,
,0.708004,-7.54E-12,,
,0.710004,-7.54E-12,,
,0.712004,-7.43E-12,,
,0.714004,-7.11E-12,,
,0.716004,-6.68E-12,,
,0.718004,-6.57E-12,,
,0.720004,-6.79E-12,,
,0.722004,-7.86E-12,,
,0.724004,-9.26E-12,,
,0.726004,-1.09E-11,,
,0.728004,-1.19E-11,,
,0.730004,-1.24E-11,,
,0.732004,-1.24E-11,,
,0.734004,-1.19E-11,,
,0.736004,-1.17E-11,,
,0.738004,-1.15E-11,,
,0.740004,-1.15E-11,,
,0.742004,-1.14E-11,,
,0.744004,-1.12E-11,,
,0.746004,-1.09E-11,,
,0.748004,-1.05E-11,,
,0.750004,-1.07E-11,,
,0.752004,-1.11E-11,,
,0.754004,-1.19E-11,,
,0.756004,-1.31E-11,,
,0.758004,-1.43E-11,,
,0.760004,-1.52E-11,,
,0.762004,-1.56E-11,,
,0.764004,-1.56E-11,,
,0.766004,-1.52E-11,,
,0.768004,-1.42E-11,,
,0.770004,-1.37E-11,,
,0.772004,-1.36E-11,,
,0.774004,-1.40E-11,,
,0.776004,-1.43E-11,,
,0.778004,-1.45E-11,,
,0.780004,-1.43E-11,,
,0.782004,-1.40E-11,,
,0.784004,-1.36E-11,,
,0.786004,-1.32E-11,,
,0.788004,-1.29E-11,,
,0.790004,-1.31E-11,,
,0.792004,-1.36E-11,,
,0.794004,-1.41E-11,,
,0.796004,-1.41E-11,,
,0.798004,-1.38E-11,,
,0.800004,-1.29E-11,,
,0.802004,-1.19E-11,,
,0.804004,-1.12E-11,,
,0.806004,-1.09E-11,,
,0.808004,-1.07E-11,,
,0.810004,-1.01E-11,,
,0.812004,-9.15E-12,,
,0.814004,-7.97E-12,,
,0.816004,-6.90E-12,,
,0.818004,-5.72E-12,,
,0.820004,-4.75E-12,,
,0.822004,-4.43E-12,,
,0.824004,-4.75E-12,,
,0.826004,-5.29E-12,,
,0.828004,-5.18E-12,,
,0.830004,-4.64E-12,,
,0.832004,-3.68E-12,,
,0.834004,-2.82E-12,,
,0.836004,-1.74E-12,,
,0.838004,-8.84E-13,,
,0.840004,-3.47E-13,,
,0.842004,-2.40E-13,,
,0.844004,-2.53E-14,,
,0.846004,4.04E-13,,
,0.848004,1.37E-12,,
,0.850004,2.44E-12,,
,0.852004,3.73E-12,,
,0.854004,4.27E-12,,
,0.856004,4.38E-12,,
,0.858004,3.95E-12,,
,0.860004,3.84E-12,,
,0.862004,3.95E-12,,
,0.864004,4.38E-12,,
,0.866004,4.70E-12,,
,0.868004,5.56E-12,,
,0.870004,6.09E-12,,
,0.872004,6.52E-12,,
,0.874004,6.42E-12,,
,0.876004,6.42E-12,,
,0.878004,6.95E-12,,
,0.880004,7.60E-12,,
,0.882004,8.56E-12,,
,0.884004,9.42E-12,,
,0.886004,9.96E-12,,
,0.888004,9.96E-12,,
,0.890004,9.31E-12,,
,0.892004,8.56E-12,,
,0.894004,8.03E-12,,
,0.896004,7.81E-12,,
,0.898004,8.03E-12,,
,0.900004,8.78E-12,,
,0.902004,9.31E-12,,
,0.904004,9.85E-12,,
,0.906004,9.74E-12,,
,0.908004,9.96E-12,,
,0.910004,1.01E-11,,
,0.912004,1.07E-11,,
,0.914004,1.11E-11,,
,0.916004,1.19E-11,,
,0.918004,1.24E-11,,
,0.920004,1.29E-11,,
,0.922004,1.26E-11,,
,0.924004,1.20E-11,,
,0.926004,1.15E-11,,
,0.928004,1.09E-11,,
,0.930004,1.08E-11,,
,0.932004,1.08E-11,,
,0.934004,1.15E-11,,
,0.936004,1.18E-11,,
,0.938004,1.19E-11,,
,0.940004,1.15E-11,,
,0.942004,1.10E-11,,
,0.944004,1.09E-11,,
,0.946004,1.11E-11,,
,0.948004,1.16E-11,,
,0.950004,1.18E-11,,
,0.952004,1.16E-11,,
,0.954004,1.09E-11,,
,0.956004,9.74E-12,,
,0.958004,8.13E-12,,
,0.960004,6.74E-12,,
,0.962004,5.66E-12,,
,0.964004,5.34E-12,,
,0.966004,5.34E-12,,
,0.968004,5.13E-12,,
,0.970004,5.02E-12,,
,0.972004,4.27E-12,,
,0.974004,3.52E-12,,
,0.976004,2.12E-12,,
,0.978004,1.05E-12,,
,0.980004,2.97E-13,,
,0.982004,-1.33E-13,,
,0.984004,-3.47E-13,,
,0.986004,-8.84E-13,,
,0.988004,-1.96E-12,,
,0.990004,-3.57E-12,,
,0.992004,-4.96E-12,,
,0.994004,-6.04E-12,,
,0.996004,-6.90E-12,,
,0.998004,-7.54E-12,,
,1.000004,-8.18E-12,,
,1.002004,-8.61E-12,,
,1.004004,-9.47E-12,,
,1.006004,-1.03E-11,,
,1.008004,-1.15E-11,,
,1.010004,-1.24E-11,,
,1.012004,-1.30E-11,,
,1.014004,-1.31E-11,,
,1.016004,-1.29E-11,,
,1.018004,-1.27E-11,,
,1.020004,-1.31E-11,,
,1.022004,-1.41E-11,,
,1.024004,-1.58E-11,,
,1.026004,-1.73E-11,,
,1.028004,-1.86E-11,,
,1.030004,-1.91E-11,,
,1.032004,-1.93E-11,,
,1.034004,-1.95E-11,,
,1.036004,-1.96E-11,,
,1.038004,-1.99E-11,,
,1.040004,-2.03E-11,,
,1.042004,-2.11E-11,,
,1.044004,-2.14E-11,,
,1.046004,-2.16E-11,,
,1.048004,-2.13E-11,,
,1.050004,-2.12E-11,,
,1.052004,-2.10E-11,,
,1.054004,-2.12E-11,,
,1.056004,-2.17E-11,,
,1.058004,-2.25E-11,,
,1.060004,-2.31E-11,,
,1.062004,-2.35E-11,,
,1.064004,-2.36E-11,,
,1.066004,-2.35E-11,,
,1.068004,-2.32E-11,,
,1.070004,-2.28E-11,,
,1.072004,-2.24E-11,,
,1.074004,-2.21E-11,,
,1.076004,-2.20E-11,,
,1.078004,-2.17E-11,,
,1.080004,-2.11E-11,,
,1.082004,-2.01E-11,,
,1.084004,-1.90E-11,,
,1.086004,-1.80E-11,,
,1.088004,-1.75E-11,,
,1.090004,-1.73E-11,,
,1.092004,-1.75E-11,,
,1.094004,-1.74E-11,,
,1.096004,-1.70E-11,,
,1.098004,-1.63E-11,,
,1.100004,-1.53E-11,,
,1.102004,-1.44E-11,,
,1.104004,-1.33E-11,,
,1.106004,-1.28E-11,,
,1.108004,-1.24E-11,,
,1.110004,-1.17E-11,,
,1.112004,-1.09E-11,,
,1.114004,-9.47E-12,,
,1.116004,-8.08E-12,,
,1.118004,-6.68E-12,,
,1.120004,-5.82E-12,,
,1.122004,-5.39E-12,,
,1.124004,-5.50E-12,,
,1.126004,-5.82E-12,,
,1.128004,-6.14E-12,,
,1.130004,-6.04E-12,,
,1.132004,-5.39E-12,,
,1.134004,-4.32E-12,,
,1.136004,-3.25E-12,,
,1.138004,-2.49E-12,,
,1.140004,-2.07E-12,,
,1.142004,-1.64E-12,,
,1.144004,-1.21E-12,,
,1.146004,-4.55E-13,,
,1.148004,5.11E-13,,
,1.150004,1.69E-12,,
,1.152004,2.66E-12,,
,1.154004,3.09E-12,,
,1.156004,2.87E-12,,
,1.158004,2.12E-12,,
,1.160004,1.59E-12,,
,1.162004,1.16E-12,,
,1.164004,1.37E-12,,
,1.166004,1.69E-12,,
,1.168004,2.23E-12,,
,1.170004,2.44E-12,,
,1.172004,2.34E-12,,
,1.174004,2.23E-12,,
,1.176004,2.12E-12,,
,1.178004,2.55E-12,,
,1.180004,3.09E-12,,
,1.182004,4.05E-12,,
,1.184004,4.70E-12,,
,1.186004,5.24E-12,,
,1.188004,5.02E-12,,
,1.190004,4.38E-12,,
,1.192004,3.52E-12,,
,1.194004,2.77E-12,,
,1.196004,2.12E-12,,
,1.198004,1.69E-12,,
,1.200004,1.69E-12,,
,1.202004,1.91E-12,,
,1.204004,1.91E-12,,
,1.206004,1.91E-12,,
,1.208004,1.80E-12,,
,1.210004,1.69E-12,,
,1.212004,1.59E-12,,
,1.214004,1.80E-12,,
,1.216004,2.12E-12,,
,1.218004,2.66E-12,,
,1.220004,2.55E-12,,
,1.222004,2.01E-12,,
,1.224004,7.26E-13,,
,1.226004,-6.69E-13,,
,1.228004,-1.74E-12,,
,1.230004,-2.60E-12,,
,1.232004,-2.49E-12,,
,1.234004,-2.28E-12,,
,1.236004,-1.96E-12,,
,1.238004,-2.17E-12,,
,1.240004,-2.82E-12,,
,1.242004,-3.57E-12,,
,1.244004,-4.43E-12,,
,1.246004,-4.43E-12,,
,1.248004,-4.21E-12,,
,1.250004,-3.68E-12,,
,1.252004,-3.57E-12,,
,1.254004,-3.68E-12,,
,1.256004,-4.21E-12,,
,1.258004,-5.18E-12,,
,1.260004,-6.14E-12,,
,1.262004,-6.79E-12,,
,1.264004,-7.33E-12,,
,1.266004,-7.33E-12,,
,1.268004,-7.54E-12,,
,1.270004,-7.43E-12,,
,1.272004,-7.97E-12,,
,1.274004,-8.18E-12,,
,1.276004,-8.29E-12,,
,1.278004,-7.97E-12,,
,1.280004,-7.65E-12,,
,1.282004,-7.00E-12,,
,1.284004,-6.47E-12,,
,1.286004,-5.93E-12,,
,1.288004,-6.25E-12,,
,1.290004,-6.90E-12,,
,1.292004,-7.75E-12,,
,1.294004,-8.40E-12,,
,1.296004,-8.51E-12,,
,1.298004,-8.61E-12,,
,1.300004,-7.97E-12,,
,1.302004,-7.54E-12,,
,1.304004,-7.11E-12,,
,1.306004,-7.11E-12,,
,1.308004,-7.43E-12,,
,1.310004,-7.75E-12,,
,1.312004,-7.75E-12,,
,1.314004,-7.33E-12,,
,1.316004,-6.36E-12,,
,1.318004,-5.61E-12,,
,1.320004,-5.29E-12,,
,1.322004,-5.61E-12,,
,1.324004,-6.36E-12,,
,1.326004,-7.33E-12,,
,1.328004,-7.75E-12,,
,1.330004,-8.18E-12,,
,1.332004,-7.86E-12,,
,1.334004,-7.86E-12,,
,1.336004,-7.54E-12,,
,1.338004,-7.54E-12,,
,1.340004,-7.75E-12,,
,1.342004,-8.08E-12,,
,1.344004,-8.18E-12,,
,1.346004,-7.86E-12,,
,1.348004,-7.22E-12,,
,1.350004,-6.68E-12,,
,1.352004,-6.36E-12,,
,1.354004,-6.68E-12,,
,1.356004,-7.54E-12,,
,1.358004,-8.72E-12,,
,1.360004,-9.69E-12,,
,1.362004,-1.03E-11,,
,1.364004,-1.07E-11,,
,1.366004,-1.05E-11,,
,1.368004,-1.01E-11,,
,1.370004,-9.79E-12,,
,1.372004,-9.69E-12,,
,1.374004,-9.90E-12,,
,1.376004,-1.00E-11,,
,1.378004,-9.90E-12,,
,1.380004,-9.58E-12,,
,1.382004,-9.04E-12,,
,1.384004,-8.51E-12,,
,1.386004,-8.29E-12,,
,1.388004,-8.51E-12,,
,1.390004,-9.15E-12,,
,1.392004,-1.00E-11,,
,1.394004,-1.07E-11,,
,1.396004,-1.09E-11,,
,1.398004,-1.05E-11,,
,1.400004,-1.00E-11,,
,1.402004,-9.37E-12,,
,1.404004,-8.72E-12,,
,1.406004,-8.29E-12,,
,1.408004,-8.08E-12,,
,1.410004,-7.75E-12,,
,1.412004,-7.33E-12,,
,1.414004,-6.57E-12,,
,1.416004,-6.04E-12,,
,1.418004,-5.29E-12,,
,1.420004,-5.18E-12,,
,1.422004,-5.50E-12,,
,1.424004,-6.57E-12,,
,1.426004,-7.43E-12,,
,1.428004,-7.65E-12,,
,1.430004,-7.43E-12,,
,1.432004,-6.68E-12,,
,1.434004,-5.72E-12,,
,1.436004,-4.75E-12,,
,1.438004,-4.00E-12,,
,1.440004,-3.78E-12,,
,1.442004,-3.68E-12,,
,1.444004,-3.68E-12,,
,1.446004,-3.35E-12,,
,1.448004,-2.92E-12,,
,1.450004,-2.82E-12,,
,1.452004,-2.60E-12,,
,1.454004,-2.39E-12,,
,1.456004,-2.39E-12,,
,1.458004,-2.71E-12,,
,1.460004,-3.35E-12,,
,1.462004,-3.14E-12,,
,1.464004,-3.03E-12,,
,1.466004,-2.07E-12,,
,1.468004,-1.21E-12,,
,1.470004,-2.40E-13,,
,1.472004,1.89E-13,,
,1.474004,-2.40E-13,,
,1.476004,-7.77E-13,,
,1.478004,-1.10E-12,,
,1.480004,-7.77E-13,,
,1.482004,-3.47E-13,,
,1.484004,-2.53E-14,,
,1.486004,8.20E-14,,
,1.488004,1.89E-13,,
,1.490004,8.20E-14,,
,1.492004,-1.33E-13,,
,1.494004,-1.33E-13,,
,1.496004,-2.53E-14,,
,1.498004,2.97E-13,,
,1.500004,7.26E-13,,
,1.502004,1.16E-12,,
,1.504004,1.48E-12,,
,1.506004,1.16E-12,,
,1.508004,6.19E-13,,
,1.510004,8.20E-14,,
,1.512004,-1.33E-13,,
,1.514004,8.20E-14,,
,1.516004,4.04E-13,,
,1.518004,1.16E-12,,
,1.520004,1.91E-12,,
,1.522004,2.23E-12,,
,1.524004,1.91E-12,,
,1.526004,1.37E-12,,
,1.528004,1.16E-12,,
,1.530004,8.34E-13,,
,1.532004,6.19E-13,,
,1.534004,4.04E-13,,
,1.536004,4.04E-13,,
,1.538004,1.89E-13,,
,1.540004,-3.47E-13,,
,1.542004,-6.69E-13,,
,1.544004,-3.47E-13,,
,1.546004,4.04E-13,,
,1.548004,1.48E-12,,
,1.550004,2.34E-12,,
,1.552004,3.09E-12,,
,1.554004,2.87E-12,,
,1.556004,2.01E-12,,
,1.558004,9.41E-13,,
,1.560004,2.97E-13,,
,1.562004,1.89E-13,,
,1.564004,1.89E-13,,
,1.566004,5.11E-13,,
,1.568004,9.41E-13,,
,1.570004,1.26E-12,,
,1.572004,1.05E-12,,
,1.574004,1.89E-13,,
,1.576004,-7.77E-13,,
,1.578004,-1.42E-12,,
,1.580004,-1.74E-12,,
,1.582004,-1.85E-12,,
,1.584004,-1.64E-12,,
,1.586004,-1.42E-12,,
,1.588004,-1.21E-12,,
,1.590004,-1.74E-12,,
,1.592004,-2.49E-12,,
,1.594004,-3.03E-12,,
,1.596004,-3.57E-12,,
,1.598004,-4.00E-12,,
,1.600004,-4.64E-12,,
,1.602004,-4.86E-12,,
,1.604004,-5.39E-12,,
,1.606004,-5.82E-12,,
,1.608004,-6.79E-12,,
,1.610004,-7.54E-12,,
,1.612004,-8.08E-12,,
,1.614004,-7.86E-12,,
,1.616004,-7.22E-12,,
,1.618004,-6.68E-12,,
,1.620004,-6.47E-12,,
,1.622004,-7.00E-12,,
,1.624004,-8.08E-12,,
,1.626004,-9.58E-12,,
,1.628004,-1.03E-11,,
,1.630004,-1.08E-11,,
,1.632004,-1.07E-11,,
,1.634004,-1.10E-11,,
,1.636004,-1.12E-11,,
,1.638004,-1.19E-11,,
,1.640004,-1.25E-11,,
,1.642004,-1.32E-11,,
,1.644004,-1.31E-11,,
,1.646004,-1.28E-11,,
,1.648004,-1.18E-11,,
,1.650004,-1.10E-11,,
,1.652004,-9.90E-12,,
,1.654004,-9.47E-12,,
,1.656004,-9.58E-12,,
,1.658004,-1.03E-11,,
,1.660004,-1.14E-11,,
,1.662004,-1.22E-11,,
,1.664004,-1.32E-11,,
,1.666004,-1.33E-11,,
,1.668004,-1.33E-11,,
,1.670004,-1.25E-11,,
,1.672004,-1.24E-11,,
,1.674004,-1.22E-11,,
,1.676004,-1.24E-11,,
,1.678004,-1.20E-11,,
,1.680004,-1.14E-11,,
,1.682004,-1.05E-11,,
,1.684004,-9.90E-12,,
,1.686004,-9.90E-12,,
,1.688004,-1.07E-11,,
,1.690004,-1.19E-11,,
,1.692004,-1.34E-11,,
,1.694004,-1.44E-11,,
,1.696004,-1.49E-11,,
,1.698004,-1.52E-11,,
,1.700004,-1.51E-11,,
,1.702004,-1.48E-11,,
,1.704004,-1.47E-11,,
,1.706004,-1.53E-11,,
,1.708004,-1.61E-11,,
,1.710004,-1.67E-11,,
,1.712004,-1.69E-11,,
,1.714004,-1.66E-11,,
,1.716004,-1.63E-11,,
,1.718004,-1.60E-11,,
,1.720004,-1.61E-11,,
,1.722004,-1.67E-11,,
,1.724004,-1.77E-11,,
,1.726004,-1.89E-11,,
,1.728004,-1.98E-11,,
,1.730004,-2.02E-11,,
,1.732004,-2.04E-11,,
,1.734004,-2.03E-11,,
,1.736004,-2.01E-11,,
,1.738004,-2.01E-11,,
,1.740004,-2.05E-11,,
,1.742004,-2.07E-11,,
,1.744004,-2.06E-11,,
,1.746004,-2.04E-11,,
,1.748004,-2.00E-11,,
,1.750004,-1.96E-11,,
,1.752004,-1.91E-11,,
,1.754004,-1.93E-11,,
,1.756004,-2.00E-11,,
,1.758004,-2.11E-11,,
,1.760004,-2.21E-11,,
,1.762004,-2.26E-11,,
,1.764004,-2.22E-11,,
,1.766004,-2.17E-11,,
,1.768004,-2.13E-11,,
,1.770004,-2.12E-11,,
,1.772004,-2.12E-11,,
,1.774004,-2.16E-11,,
,1.776004,-2.21E-11,,
,1.778004,-2.28E-11,,
,1.780004,-2.30E-11,,
,1.782004,-2.30E-11,,
,1.784004,-2.29E-11,,
,1.786004,-2.31E-11,,
,1.788004,-2.36E-11,,
,1.790004,-2.45E-11,,
,1.792004,-2.54E-11,,
,1.794004,-2.59E-11,,
,1.796004,-2.62E-11,,
,1.798004,-2.64E-11,,
,1.800004,-2.66E-11,,
,1.802004,-2.70E-11,,
,1.804004,-2.73E-11,,
,1.806004,-2.84E-11,,
,1.808004,-2.92E-11,,
,1.810004,-3.00E-11,,
,1.812004,-3.01E-11,,
,1.814004,-3.00E-11,,
,1.816004,-3.00E-11,,
,1.818004,-3.00E-11,,
,1.820004,-3.01E-11,,
,1.822004,-3.07E-11,,
,1.824004,-3.16E-11,,
,1.826004,-3.29E-11,,
,1.828004,-3.38E-11,,
,1.830004,-3.47E-11,,
,1.832004,-3.51E-11,,
,1.834004,-3.51E-11,,
,1.836004,-3.51E-11,,
,1.838004,-3.55E-11,,
,1.840004,-3.63E-11,,
,1.842004,-3.72E-11,,
,1.844004,-3.78E-11,,
,1.846004,-3.79E-11,,
,1.848004,-3.78E-11,,
,1.850004,-3.74E-11,,
,1.852004,-3.71E-11,,
,1.854004,-3.74E-11,,
,1.856004,-3.81E-11,,
,1.858004,-3.93E-11,,
,1.860004,-4.03E-11,,
,1.862004,-4.10E-11,,
,1.864004,-4.13E-11,,
,1.866004,-4.11E-11,,
,1.868004,-4.13E-11,,
,1.870004,-4.15E-11,,
,1.872004,-4.20E-11,,
,1.874004,-4.23E-11,,
,1.876004,-4.26E-11,,
,1.878004,-4.26E-11,,
,1.880004,-4.28E-11,,
,1.882004,-4.26E-11,,
,1.884004,-4.26E-11,,
,1.886004,-4.25E-11,,
,1.888004,-4.31E-11,,
,1.890004,-4.40E-11,,
,1.892004,-4.51E-11,,
,1.894004,-4.59E-11,,
,1.896004,-4.59E-11,,
,1.898004,-4.57E-11,,
,1.900004,-4.50E-11,,
,1.902004,-4.47E-11,,
,1.904004,-4.44E-11,,
,1.906004,-4.48E-11,,
,1.908004,-4.54E-11,,
,1.910004,-4.62E-11,,
,1.912004,-4.66E-11,,
,1.914004,-4.66E-11,,
,1.916004,-4.62E-11,,
,1.918004,-4.57E-11,,
,1.920004,-4.52E-11,,
,1.922004,-4.54E-11,,
,1.924004,-4.61E-11,,
,1.926004,-4.67E-11,,
,1.928004,-4.72E-11,,
,1.930004,-4.70E-11,,
,1.932004,-4.68E-11,,
,1.934004,-4.64E-11,,
,1.936004,-4.63E-11,,
,1.938004,-4.66E-11,,
,1.940004,-4.74E-11,,
,1.942004,-4.80E-11,,
,1.944004,-4.81E-11,,
,1.946004,-4.78E-11,,
,1.948004,-4.70E-11,,
,1.950004,-4.63E-11,,
,1.952004,-4.57E-11,,
,1.954004,-4.54E-11,,
,1.956004,-4.59E-11,,
,1.958004,-4.68E-11,,
,1.960004,-4.79E-11,,
,1.962004,-4.84E-11,,
,1.964004,-4.86E-11,,
,1.966004,-4.81E-11,,
,1.968004,-4.77E-11,,
,1.970004,-4.72E-11,,
,1.972004,-4.70E-11,,
,1.974004,-4.72E-11,,
,1.976004,-4.73E-11,,
,1.978004,-4.70E-11,,
,1.980004,-4.66E-11,,
,1.982004,-4.60E-11,,
,1.984004,-4.54E-11,,
,1.986004,-4.50E-11,,
,1.988004,-4.52E-11,,
,1.990004,-4.60E-11,,
,1.992004,-4.68E-11,,
,1.994004,-4.74E-11,,
,1.996004,-4.76E-11,,
,1.998004,-4.76E-11,,
,2.000004,-4.73E-11,,
,2.002004,-4.66E-11,,
,2.004004,-4.61E-11,,
,2.006004,-4.58E-11,,
,2.008004,-4.59E-11,,
,2.010004,-4.59E-11,,
,2.012004,-4.59E-11,,
,2.014004,-4.53E-11,,
,2.016004,-4.47E-11,,
,2.018004,-4.41E-11,,
,2.020004,-4.41E-11,,
,2.022004,-4.46E-11,,
,2.024004,-4.52E-11,,
,2.026004,-4.57E-11,,
,2.028004,-4.57E-11,,
,2.030004,-4.53E-11,,
,2.032004,-4.46E-11,,
,2.034004,-4.37E-11,,
,2.036004,-4.26E-11,,
,2.038004,-4.22E-11,,
,2.040004,-4.22E-11,,
,2.042004,-4.24E-11,,
,2.044004,-4.23E-11,,
,2.046004,-4.19E-11,,
,2.048004,-4.11E-11,,
,2.050004,-4.01E-11,,
,2.052004,-3.89E-11,,
,2.054004,-3.84E-11,,
,2.056004,-3.82E-11,,
,2.058004,-3.86E-11,,
,2.060004,-3.87E-11,,
,2.062004,-3.84E-11,,
,2.064004,-3.77E-11,,
,2.066004,-3.64E-11,,
,2.068004,-3.52E-11,,
,2.070004,-3.41E-11,,
,2.072004,-3.34E-11,,
,2.074004,-3.32E-11,,
,2.076004,-3.27E-11,,
,2.078004,-3.17E-11,,
,2.080004,-3.04E-11,,
,2.082004,-2.91E-11,,
,2.084004,-2.79E-11,,
,2.086004,-2.68E-11,,
,2.088004,-2.61E-11,,
,2.090004,-2.62E-11,,
,2.092004,-2.64E-11,,
,2.094004,-2.62E-11,,
,2.096004,-2.56E-11,,
,2.098004,-2.45E-11,,
,2.100004,-2.32E-11,,
,2.102004,-2.17E-11,,
,2.104004,-2.06E-11,,
,2.106004,-2.04E-11,,
,2.108004,-2.03E-11,,
,2.110004,-2.03E-11,,
,2.112004,-2.00E-11,,
,2.114004,-1.98E-11,,
,2.116004,-1.95E-11,,
,2.118004,-1.88E-11,,
,2.120004,-1.81E-11,,
,2.122004,-1.74E-11,,
,2.124004,-1.73E-11,,
,2.126004,-1.72E-11,,
,2.128004,-1.70E-11,,
,2.130004,-1.62E-11,,
,2.132004,-1.56E-11,,
,2.134004,-1.47E-11,,
,2.136004,-1.42E-11,,
,2.138004,-1.37E-11,,
,2.140004,-1.34E-11,,
,2.142004,-1.34E-11,,
,2.144004,-1.33E-11,,
,2.146004,-1.31E-11,,
,2.148004,-1.25E-11,,
,2.150004,-1.20E-11,,
,2.152004,-1.16E-11,,
,2.154004,-1.15E-11,,
,2.156004,-1.18E-11,,
,2.158004,-1.22E-11,,
,2.160004,-1.24E-11,,
,2.162004,-1.18E-11,,
,2.164004,-1.11E-11,,
,2.166004,-1.02E-11,,
,2.168004,-9.15E-12,,
,2.170004,-8.40E-12,,
,2.172004,-8.18E-12,,
,2.174004,-8.83E-12,,
,2.176004,-9.69E-12,,
,2.178004,-1.02E-11,,
,2.180004,-1.05E-11,,
,2.182004,-1.05E-11,,
,2.184004,-1.04E-11,,
,2.186004,-1.01E-11,,
,2.188004,-1.01E-11,,
,2.190004,-1.03E-11,,
,2.192004,-1.09E-11,,
,2.194004,-1.10E-11,,
,2.196004,-1.09E-11,,
,2.198004,-1.04E-11,,
,2.200004,-1.03E-11,,
,2.202004,-1.02E-11,,
,2.204004,-1.07E-11,,
,2.206004,-1.12E-11,,
,2.208004,-1.22E-11,,
,2.210004,-1.29E-11,,
,2.212004,-1.36E-11,,
,2.214004,-1.36E-11,,
,2.216004,-1.33E-11,,
,2.218004,-1.31E-11,,
,2.220004,-1.30E-11,,
,2.222004,-1.32E-11,,
,2.224004,-1.34E-11,,
,2.226004,-1.42E-11,,
,2.228004,-1.44E-11,,
,2.230004,-1.44E-11,,
,2.232004,-1.39E-11,,
,2.234004,-1.33E-11,,
,2.236004,-1.33E-11,,
,2.238004,-1.38E-11,,
,2.240004,-1.48E-11,,
,2.242004,-1.58E-11,,
,2.244004,-1.66E-11,,
,2.246004,-1.67E-11,,
,2.248004,-1.63E-11,,
,2.250004,-1.56E-11,,
,2.252004,-1.51E-11,,
,2.254004,-1.46E-11,,
,2.256004,-1.46E-11,,
,2.258004,-1.47E-11,,
,2.260004,-1.49E-11,,
,2.262004,-1.51E-11,,
,2.264004,-1.48E-11,,
,2.266004,-1.48E-11,,
,2.268004,-1.49E-11,,
,2.270004,-1.53E-11,,
,2.272004,-1.58E-11,,
,2.274004,-1.63E-11,,
,2.276004,-1.71E-11,,
,2.278004,-1.74E-11,,
,2.280004,-1.74E-11,,
,2.282004,-1.69E-11,,
,2.284004,-1.61E-11,,
,2.286004,-1.55E-11,,
,2.288004,-1.52E-11,,
,2.290004,-1.53E-11,,
,2.292004,-1.57E-11,,
,2.294004,-1.63E-11,,
,2.296004,-1.65E-11,,
,2.298004,-1.66E-11,,
,2.300004,-1.57E-11,,
,2.302004,-1.53E-11,,
,2.304004,-1.48E-11,,
,2.306004,-1.53E-11,,
,2.308004,-1.57E-11,,
,2.310004,-1.60E-11,,
,2.312004,-1.59E-11,,
,2.314004,-1.54E-11,,
,2.316004,-1.43E-11,,
,2.318004,-1.34E-11,,
,2.320004,-1.26E-11,,
,2.322004,-1.25E-11,,
,2.324004,-1.24E-11,,
,2.326004,-1.25E-11,,
,2.328004,-1.24E-11,,
,2.330004,-1.22E-11,,
,2.332004,-1.18E-11,,
,2.334004,-1.15E-11,,
,2.336004,-1.15E-11,,
,2.338004,-1.15E-11,,
,2.340004,-1.19E-11,,
,2.342004,-1.25E-11,,
,2.344004,-1.29E-11,,
,2.346004,-1.29E-11,,
,2.348004,-1.25E-11,,
,2.350004,-1.18E-11,,
,2.352004,-1.12E-11,,
,2.354004,-1.08E-11,,
,2.356004,-1.08E-11,,
,2.358004,-1.12E-11,,
,2.360004,-1.16E-11,,
,2.362004,-1.18E-11,,
,2.364004,-1.14E-11,,
,2.366004,-1.09E-11,,
,2.368004,-1.07E-11,,
,2.370004,-1.07E-11,,
,2.372004,-1.10E-11,,
,2.374004,-1.16E-11,,
,2.376004,-1.24E-11,,
,2.378004,-1.31E-11,,
,2.380004,-1.33E-11,,
,2.382004,-1.30E-11,,
,2.384004,-1.23E-11,,
,2.386004,-1.14E-11,,
,2.388004,-1.13E-11,,
,2.390004,-1.16E-11,,
,2.392004,-1.22E-11,,
,2.394004,-1.25E-11,,
,2.396004,-1.24E-11,,
,2.398004,-1.26E-11,,
,2.400004,-1.26E-11,,
,2.402004,-1.31E-11,,
,2.404004,-1.37E-11,,
,2.406004,-1.47E-11,,
,2.408004,-1.56E-11,,
,2.410004,-1.63E-11,,
,2.412004,-1.63E-11,,
,2.414004,-1.61E-11,,
,2.416004,-1.56E-11,,
,2.418004,-1.52E-11,,
,2.420004,-1.48E-11,,
,2.422004,-1.49E-11,,
,2.424004,-1.56E-11,,
,2.426004,-1.65E-11,,
,2.428004,-1.71E-11,,
,2.430004,-1.76E-11,,
,2.432004,-1.78E-11,,
,2.434004,-1.82E-11,,
,2.436004,-1.83E-11,,
,2.438004,-1.89E-11,,
,2.440004,-1.99E-11,,
,2.442004,-2.09E-11,,
,2.444004,-2.12E-11,,
,2.446004,-2.11E-11,,
,2.448004,-2.07E-11,,
,2.450004,-2.03E-11,,
,2.452004,-1.97E-11,,
,2.454004,-1.95E-11,,
,2.456004,-1.97E-11,,
,2.458004,-2.04E-11,,
,2.460004,-2.09E-11,,
,2.462004,-2.15E-11,,
,2.464004,-2.17E-11,,
,2.466004,-2.19E-11,,
,2.468004,-2.19E-11,,
,2.470004,-2.20E-11,,
,2.472004,-2.25E-11,,
,2.474004,-2.32E-11,,
,2.476004,-2.38E-11,,
,2.478004,-2.39E-11,,
,2.480004,-2.33E-11,,
,2.482004,-2.27E-11,,
,2.484004,-2.18E-11,,
,2.486004,-2.13E-11,,
,2.488004,-2.09E-11,,
,2.490004,-2.12E-11,,
,2.492004,-2.15E-11,,
,2.494004,-2.20E-11,,
,2.496004,-2.18E-11,,
,2.498004,-2.17E-11,,
,2.500004,-2.12E-11,,
,2.502004,-2.07E-11,,
,2.504004,-2.03E-11,,
,2.506004,-2.04E-11,,
,2.508004,-2.10E-11,,
,2.510004,-2.12E-11,,
,2.512004,-2.10E-11,,
,2.514004,-2.02E-11,,
,2.516004,-1.93E-11,,
,2.518004,-1.84E-11,,
,2.520004,-1.77E-11,,
,2.522004,-1.74E-11,,
,2.524004,-1.72E-11,,
,2.526004,-1.71E-11,,
,2.528004,-1.69E-11,,
,2.530004,-1.69E-11,,
,2.532004,-1.68E-11,,
,2.534004,-1.65E-11,,
,2.536004,-1.65E-11,,
,2.538004,-1.68E-11,,
,2.540004,-1.75E-11,,
,2.542004,-1.80E-11,,
,2.544004,-1.81E-11,,
,2.546004,-1.74E-11,,
,2.548004,-1.62E-11,,
,2.550004,-1.45E-11,,
,2.552004,-1.32E-11,,
,2.554004,-1.23E-11,,
,2.556004,-1.25E-11,,
,2.558004,-1.28E-11,,
,2.560004,-1.38E-11,,
,2.562004,-1.42E-11,,
,2.564004,-1.46E-11,,
,2.566004,-1.47E-11,,
,2.568004,-1.48E-11,,
,2.570004,-1.49E-11,,
,2.572004,-1.51E-11,,
,2.574004,-1.54E-11,,
,2.576004,-1.56E-11,,
,2.578004,-1.56E-11,,
,2.580004,-1.52E-11,,
,2.582004,-1.45E-11,,
,2.584004,-1.38E-11,,
,2.586004,-1.33E-11,,
,2.588004,-1.34E-11,,
,2.590004,-1.43E-11,,
,2.592004,-1.53E-11,,
,2.594004,-1.62E-11,,
,2.596004,-1.67E-11,,
,2.598004,-1.69E-11,,
,2.600004,-1.70E-11,,
,2.602004,-1.71E-11,,
,2.604004,-1.77E-11,,
,2.606004,-1.85E-11,,
,2.608004,-1.98E-11,,
,2.610004,-2.05E-11,,
,2.612004,-2.10E-11,,
,2.614004,-2.09E-11,,
,2.616004,-2.06E-11,,
,2.618004,-2.00E-11,,
,2.620004,-1.97E-11,,
,2.622004,-1.96E-11,,
,2.624004,-2.04E-11,,
,2.626004,-2.12E-11,,
,2.628004,-2.20E-11,,
,2.630004,-2.26E-11,,
,2.632004,-2.26E-11,,
,2.634004,-2.26E-11,,
,2.636004,-2.25E-11,,
,2.638004,-2.29E-11,,
,2.640004,-2.33E-11,,
,2.642004,-2.38E-11,,
,2.644004,-2.39E-11,,
,2.646004,-2.33E-11,,
,2.648004,-2.26E-11,,
,2.650004,-2.15E-11,,
,2.652004,-2.06E-11,,
,2.654004,-2.00E-11,,
,2.656004,-2.02E-11,,
,2.658004,-2.11E-11,,
,2.660004,-2.18E-11,,
,2.662004,-2.21E-11,,
,2.664004,-2.21E-11,,
,2.666004,-2.20E-11,,
,2.668004,-2.20E-11,,
,2.670004,-2.21E-11,,
,2.672004,-2.27E-11,,
,2.674004,-2.35E-11,,
,2.676004,-2.41E-11,,
,2.678004,-2.43E-11,,
,2.680004,-2.38E-11,,
,2.682004,-2.31E-11,,
,2.684004,-2.24E-11,,
,2.686004,-2.17E-11,,
,2.688004,-2.12E-11,,
,2.690004,-2.14E-11,,
,2.692004,-2.19E-11,,
,2.694004,-2.26E-11,,
,2.696004,-2.25E-11,,
,2.698004,-2.25E-11,,
,2.700004,-2.21E-11,,
,2.702004,-2.21E-11,,
,2.704004,-2.17E-11,,
,2.706004,-2.18E-11,,
,2.708004,-2.17E-11,,
,2.710004,-2.19E-11,,
,2.712004,-2.15E-11,,
,2.714004,-2.06E-11,,
,2.716004,-1.92E-11,,
,2.718004,-1.78E-11,,
,2.720004,-1.72E-11,,
,2.722004,-1.67E-11,,
,2.724004,-1.68E-11,,
,2.726004,-1.71E-11,,
,2.728004,-1.73E-11,,
,2.730004,-1.73E-11,,
,2.732004,-1.68E-11,,
,2.734004,-1.65E-11,,
,2.736004,-1.63E-11,,
,2.738004,-1.61E-11,,
,2.740004,-1.66E-11,,
,2.742004,-1.68E-11,,
,2.744004,-1.69E-11,,
,2.746004,-1.61E-11,,
,2.748004,-1.48E-11,,
,2.750004,-1.37E-11,,
,2.752004,-1.26E-11,,
,2.754004,-1.20E-11,,
,2.756004,-1.22E-11,,
,2.758004,-1.28E-11,,
,2.760004,-1.34E-11,,
,2.762004,-1.37E-11,,
,2.764004,-1.34E-11,,
,2.766004,-1.32E-11,,
,2.768004,-1.28E-11,,
,2.770004,-1.25E-11,,
,2.772004,-1.24E-11,,
,2.774004,-1.27E-11,,
,2.776004,-1.30E-11,,
,2.778004,-1.30E-11,,
,2.780004,-1.25E-11,,
,2.782004,-1.15E-11,,
,2.784004,-1.05E-11,,
,2.786004,-9.79E-12,,
,2.788004,-9.58E-12,,
,2.790004,-9.79E-12,,
,2.792004,-9.90E-12,,
,2.794004,-1.01E-11,,
,2.796004,-1.00E-11,,
,2.798004,-1.00E-11,,
,2.800004,-9.47E-12,,
,2.802004,-8.83E-12,,
,2.804004,-8.40E-12,,
,2.806004,-8.72E-12,,
,2.808004,-9.04E-12,,
,2.810004,-9.15E-12,,
,2.812004,-8.83E-12,,
,2.814004,-8.40E-12,,
,2.816004,-7.54E-12,,
,2.818004,-6.47E-12,,
,2.820004,-5.50E-12,,
,2.822004,-5.61E-12,,
,2.824004,-6.25E-12,,
,2.826004,-7.22E-12,,
,2.828004,-7.75E-12,,
,2.830004,-7.86E-12,,
,2.832004,-7.86E-12,,
,2.834004,-7.43E-12,,
,2.836004,-7.33E-12,,
,2.838004,-7.00E-12,,
,2.840004,-7.54E-12,,
,2.842004,-8.08E-12,,
,2.844004,-8.51E-12,,
,2.846004,-8.29E-12,,
,2.848004,-7.86E-12,,
,2.850004,-7.33E-12,,
,2.852004,-6.90E-12,,
,2.854004,-6.68E-12,,
,2.856004,-7.00E-12,,
,2.858004,-7.54E-12,,
,2.860004,-7.97E-12,,
,2.862004,-8.08E-12,,
,2.864004,-7.75E-12,,
,2.866004,-7.11E-12,,
,2.868004,-6.36E-12,,
,2.870004,-6.04E-12,,
,2.872004,-6.36E-12,,
,2.874004,-7.33E-12,,
,2.876004,-8.18E-12,,
,2.878004,-8.61E-12,,
,2.880004,-8.18E-12,,
,2.882004,-7.43E-12,,
,2.884004,-6.36E-12,,
,2.886004,-5.50E-12,,
,2.888004,-4.96E-12,,
,2.890004,-4.86E-12,,
,2.892004,-5.29E-12,,
,2.894004,-5.72E-12,,
,2.896004,-6.14E-12,,
,2.898004,-6.25E-12,,
,2.900004,-6.25E-12,,
,2.902004,-6.25E-12,,
,2.904004,-6.47E-12,,
,2.906004,-6.90E-12,,
,2.908004,-7.33E-12,,
,2.910004,-7.33E-12,,
,2.912004,-6.90E-12,,
,2.914004,-6.25E-12,,
,2.916004,-5.39E-12,,
,2.918004,-4.32E-12,,
,2.920004,-3.78E-12,,
,2.922004,-4.00E-12,,
,2.924004,-5.07E-12,,
,2.926004,-6.04E-12,,
,2.928004,-6.90E-12,,
,2.930004,-7.33E-12,,
,2.932004,-7.43E-12,,
,2.934004,-7.43E-12,,
,2.936004,-7.54E-12,,
,2.938004,-7.97E-12,,
,2.940004,-8.61E-12,,
,2.942004,-9.26E-12,,
,2.944004,-9.90E-12,,
,2.946004,-9.90E-12,,
,2.948004,-9.79E-12,,
,2.950004,-9.37E-12,,
,2.952004,-9.26E-12,,
,2.954004,-9.15E-12,,
,2.956004,-9.69E-12,,
,2.958004,-1.04E-11,,
,2.960004,-1.12E-11,,
,2.962004,-1.17E-11,,
,2.964004,-1.18E-11,,
,2.966004,-1.20E-11,,
,2.968004,-1.19E-11,,
,2.970004,-1.18E-11,,
,2.972004,-1.20E-11,,
,2.974004,-1.25E-11,,
,2.976004,-1.31E-11,,
,2.978004,-1.29E-11,,
,2.980004,-1.24E-11,,
,2.982004,-1.15E-11,,
,2.984004,-1.08E-11,,
,2.986004,-9.79E-12,,
,2.988004,-9.47E-12,,
,2.990004,-9.79E-12,,
,2.992004,-1.08E-11,,
,2.994004,-1.15E-11,,
,2.996004,-1.17E-11,,
,2.998004,-1.17E-11,,
,3.000004,-1.15E-11,,
,3.002004,-1.12E-11,,
,3.004004,-1.10E-11,,
,3.006004,-1.11E-11,,
,3.008004,-1.15E-11,,
,3.010004,-1.17E-11,,
,3.012004,-1.18E-11,,
,3.014004,-1.16E-11,,
,3.016004,-1.09E-11,,
,3.018004,-9.90E-12,,
,3.020004,-9.04E-12,,
,3.022004,-8.72E-12,,
,3.024004,-8.61E-12,,
,3.026004,-9.04E-12,,
,3.028004,-9.47E-12,,
,3.030004,-9.79E-12,,
,3.032004,-9.58E-12,,
,3.034004,-9.37E-12,,
,3.036004,-9.15E-12,,
,3.038004,-9.37E-12,,
,3.040004,-9.90E-12,,
,3.042004,-1.04E-11,,
,3.044004,-1.07E-11,,
,3.046004,-1.02E-11,,
,3.048004,-9.26E-12,,
,3.050004,-7.86E-12,,
,3.052004,-6.57E-12,,
,3.054004,-5.93E-12,,
,3.056004,-6.04E-12,,
,3.058004,-6.57E-12,,
,3.060004,-7.43E-12,,
,3.062004,-8.08E-12,,
,3.064004,-8.61E-12,,
,3.066004,-8.83E-12,,
,3.068004,-8.94E-12,,
,3.070004,-9.04E-12,,
,3.072004,-9.37E-12,,
,3.074004,-9.90E-12,,
,3.076004,-1.02E-11,,
,3.078004,-1.01E-11,,
,3.080004,-9.79E-12,,
,3.082004,-9.47E-12,,
,3.084004,-8.83E-12,,
,3.086004,-8.40E-12,,
,3.088004,-8.40E-12,,
,3.090004,-9.15E-12,,
,3.092004,-9.90E-12,,
,3.094004,-1.08E-11,,
,3.096004,-1.13E-11,,
,3.098004,-1.16E-11,,
,3.100004,-1.15E-11,,
,3.102004,-1.15E-11,,
,3.104004,-1.17E-11,,
,3.106004,-1.20E-11,,
,3.108004,-1.27E-11,,
,3.110004,-1.30E-11,,
,3.112004,-1.31E-11,,
,3.114004,-1.27E-11,,
,3.116004,-1.18E-11,,
,3.118004,-1.10E-11,,
,3.120004,-1.01E-11,,
,3.122004,-1.02E-11,,
,3.124004,-1.10E-11,,
,3.126004,-1.18E-11,,
,3.128004,-1.23E-11,,
,3.130004,-1.25E-11,,
,3.132004,-1.27E-11,,
,3.134004,-1.28E-11,,
,3.136004,-1.27E-11,,
,3.138004,-1.28E-11,,
,3.140004,-1.32E-11,,
,3.142004,-1.36E-11,,
,3.144004,-1.37E-11,,
,3.146004,-1.33E-11,,
,3.148004,-1.27E-11,,
,3.150004,-1.16E-11,,
,3.152004,-1.10E-11,,
,3.154004,-1.10E-11,,
,3.156004,-1.16E-11,,
,3.158004,-1.27E-11,,
,3.160004,-1.37E-11,,
,3.162004,-1.43E-11,,
,3.164004,-1.44E-11,,
,3.166004,-1.41E-11,,
,3.168004,-1.37E-11,,
,3.170004,-1.33E-11,,
,3.172004,-1.31E-11,,
,3.174004,-1.32E-11,,
,3.176004,-1.33E-11,,
,3.178004,-1.33E-11,,
,3.180004,-1.30E-11,,
,3.182004,-1.25E-11,,
,3.184004,-1.19E-11,,
,3.186004,-1.15E-11,,
,3.188004,-1.13E-11,,
,3.190004,-1.14E-11,,
,3.192004,-1.16E-11,,
,3.194004,-1.17E-11,,
,3.196004,-1.14E-11,,
,3.198004,-1.10E-11,,
,3.200004,-1.02E-11,,
,3.202004,-9.79E-12,,
,3.204004,-9.58E-12,,
,3.206004,-9.79E-12,,
,3.208004,-1.01E-11,,
,3.210004,-1.02E-11,,
,3.212004,-1.03E-11,,
,3.214004,-1.00E-11,,
,3.216004,-9.58E-12,,
,3.218004,-8.83E-12,,
,3.220004,-8.18E-12,,
,3.222004,-7.65E-12,,
,3.224004,-7.54E-12,,
,3.226004,-7.54E-12,,
,3.228004,-7.43E-12,,
,3.230004,-6.90E-12,,
,3.232004,-6.25E-12,,
,3.234004,-5.50E-12,,
,3.236004,-4.86E-12,,
,3.238004,-4.53E-12,,
,3.240004,-4.75E-12,,
,3.242004,-5.39E-12,,
,3.244004,-5.72E-12,,
,3.246004,-5.72E-12,,
,3.248004,-5.07E-12,,
,3.250004,-4.21E-12,,
,3.252004,-3.25E-12,,
,3.254004,-2.71E-12,,
,3.256004,-2.92E-12,,
,3.258004,-3.57E-12,,
,3.260004,-4.00E-12,,
,3.262004,-3.89E-12,,
,3.264004,-3.46E-12,,
,3.266004,-3.25E-12,,
,3.268004,-3.03E-12,,
,3.270004,-3.03E-12,,
,3.272004,-3.14E-12,,
,3.274004,-3.68E-12,,
,3.276004,-4.43E-12,,
,3.278004,-4.86E-12,,
,3.280004,-4.96E-12,,
,3.282004,-4.43E-12,,
,3.284004,-4.00E-12,,
,3.286004,-3.46E-12,,
,3.288004,-3.46E-12,,
,3.290004,-3.57E-12,,
,3.292004,-4.21E-12,,
,3.294004,-4.64E-12,,
,3.296004,-4.96E-12,,
,3.298004,-4.64E-12,,
,3.300004,-4.32E-12,,
,3.302004,-4.00E-12,,
,3.304004,-4.32E-12,,
,3.306004,-5.18E-12,,
,3.308004,-6.14E-12,,
,3.310004,-6.79E-12,,
,3.312004,-7.11E-12,,
,3.314004,-7.22E-12,,
,3.316004,-7.11E-12,,
,3.318004,-6.47E-12,,
,3.320004,-6.14E-12,,
,3.322004,-6.25E-12,,
,3.324004,-6.90E-12,,
,3.326004,-7.33E-12,,
,3.328004,-7.75E-12,,
,3.330004,-7.86E-12,,
,3.332004,-7.97E-12,,
,3.334004,-7.75E-12,,
,3.336004,-7.97E-12,,
,3.338004,-8.51E-12,,
,3.340004,-9.47E-12,,
,3.342004,-1.02E-11,,
,3.344004,-1.10E-11,,
,3.346004,-1.13E-11,,
,3.348004,-1.12E-11,,
,3.350004,-1.04E-11,,
,3.352004,-9.58E-12,,
,3.354004,-9.04E-12,,
,3.356004,-9.04E-12,,
,3.358004,-9.37E-12,,
,3.360004,-9.90E-12,,
,3.362004,-1.03E-11,,
,3.364004,-1.05E-11,,
,3.366004,-1.08E-11,,
,3.368004,-1.08E-11,,
,3.370004,-1.09E-11,,
,3.372004,-1.12E-11,,
,3.374004,-1.20E-11,,
,3.376004,-1.29E-11,,
,3.378004,-1.32E-11,,
,3.380004,-1.27E-11,,
,3.382004,-1.20E-11,,
,3.384004,-1.12E-11,,
,3.386004,-1.07E-11,,
,3.388004,-1.01E-11,,
,3.390004,-1.01E-11,,
,3.392004,-1.03E-11,,
,3.394004,-1.05E-11,,
,3.396004,-1.07E-11,,
,3.398004,-1.05E-11,,
,3.400004,-1.05E-11,,
,3.402004,-1.01E-11,,
,3.404004,-1.01E-11,,
,3.406004,-1.03E-11,,
,3.408004,-1.11E-11,,
,3.410004,-1.14E-11,,
,3.412004,-1.13E-11,,
,3.414004,-1.04E-11,,
,3.416004,-9.47E-12,,
,3.418004,-8.18E-12,,
,3.420004,-7.22E-12,,
,3.422004,-6.79E-12,,
,3.424004,-6.90E-12,,
,3.426004,-7.11E-12,,
,3.428004,-6.90E-12,,
,3.430004,-6.57E-12,,
,3.432004,-5.72E-12,,
,3.434004,-4.86E-12,,
,3.436004,-4.10E-12,,
,3.438004,-4.32E-12,,
,3.440004,-4.53E-12,,
,3.442004,-4.64E-12,,
,3.444004,-4.43E-12,,
,3.446004,-3.89E-12,,
,3.448004,-2.71E-12,,
,3.450004,-9.92E-13,,
,3.452004,4.04E-13,,
,3.454004,1.48E-12,,
,3.456004,1.91E-12,,
,3.458004,2.34E-12,,
,3.460004,2.66E-12,,
,3.462004,3.20E-12,,
,3.464004,3.73E-12,,
,3.466004,4.38E-12,,
,3.468004,5.13E-12,,
,3.470004,5.77E-12,,
,3.472004,5.88E-12,,
,3.474004,5.66E-12,,
,3.476004,5.66E-12,,
,3.478004,5.88E-12,,
,3.480004,6.95E-12,,
,3.482004,8.24E-12,,
,3.484004,1.01E-11,,
,3.486004,1.17E-11,,
,3.488004,1.30E-11,,
,3.490004,1.37E-11,,
,3.492004,1.41E-11,,
,3.494004,1.46E-11,,
,3.496004,1.50E-11,,
,3.498004,1.56E-11,,
,3.500004,1.63E-11,,
,3.502004,1.68E-11,,
,3.504004,1.68E-11,,
,3.506004,1.66E-11,,
,3.508004,1.62E-11,,
,3.510004,1.60E-11,,
,3.512004,1.59E-11,,
,3.514004,1.65E-11,,
,3.516004,1.75E-11,,
,3.518004,1.88E-11,,
,3.520004,1.98E-11,,
,3.522004,2.02E-11,,
,3.524004,1.97E-11,,
,3.526004,1.87E-11,,
,3.528004,1.78E-11,,
,3.530004,1.72E-11,,
,3.532004,1.67E-11,,
,3.534004,1.62E-11,,
,3.536004,1.59E-11,,
,3.538004,1.51E-11,,
,3.540004,1.45E-11,,
,3.542004,1.35E-11,,
,3.544004,1.31E-11,,
,3.546004,1.29E-11,,
,3.548004,1.31E-11,,
,3.550004,1.36E-11,,
,3.552004,1.41E-11,,
,3.554004,1.45E-11,,
,3.556004,1.38E-11,,
,3.558004,1.26E-11,,
,3.560004,1.16E-11,,
,3.562004,1.10E-11,,
,3.564004,1.07E-11,,
,3.566004,1.04E-11,,
,3.568004,1.02E-11,,
,3.570004,9.74E-12,,
,3.572004,8.99E-12,,
,3.574004,7.92E-12,,
,3.576004,6.85E-12,,
,3.578004,6.20E-12,,
,3.580004,5.77E-12,,
,3.582004,6.09E-12,,
,3.584004,6.31E-12,,
,3.586004,6.85E-12,,
,3.588004,6.74E-12,,
,3.590004,6.52E-12,,
,3.592004,5.77E-12,,
,3.594004,5.24E-12,,
,3.596004,4.48E-12,,
,3.598004,3.84E-12,,
,3.600004,3.20E-12,,
,3.602004,2.77E-12,,
,3.604004,2.12E-12,,
,3.606004,1.37E-12,,
,3.608004,1.89E-13,,
,3.610004,-2.40E-13,,
,3.612004,-6.69E-13,,
,3.614004,-1.33E-13,,
,3.616004,2.97E-13,,
,3.618004,9.41E-13,,
,3.620004,8.34E-13,,
,3.622004,4.04E-13,,
,3.624004,-4.55E-13,,
,3.626004,-1.42E-12,,
,3.628004,-2.49E-12,,
,3.630004,-3.03E-12,,
,3.632004,-2.92E-12,,
,3.634004,-2.82E-12,,
,3.636004,-3.03E-12,,
,3.638004,-3.78E-12,,
,3.640004,-4.96E-12,,
,3.642004,-6.04E-12,,
,3.644004,-6.79E-12,,
,3.646004,-6.90E-12,,
,3.648004,-6.57E-12,,
,3.650004,-6.04E-12,,
,3.652004,-5.50E-12,,
,3.654004,-5.61E-12,,
,3.656004,-5.82E-12,,
,3.658004,-6.57E-12,,
,3.660004,-7.00E-12,,
,3.662004,-7.54E-12,,
,3.664004,-7.54E-12,,
,3.666004,-7.33E-12,,
,3.668004,-7.33E-12,,
,3.670004,-7.22E-12,,
,3.672004,-7.65E-12,,
,3.674004,-8.08E-12,,
,3.676004,-8.83E-12,,
,3.678004,-8.83E-12,,
,3.680004,-8.61E-12,,
,3.682004,-7.86E-12,,
,3.684004,-7.22E-12,,
,3.686004,-6.36E-12,,
,3.688004,-6.04E-12,,
,3.690004,-6.25E-12,,
,3.692004,-6.79E-12,,
,3.694004,-7.11E-12,,
,3.696004,-7.11E-12,,
,3.698004,-6.79E-12,,
,3.700004,-6.36E-12,,
,3.702004,-5.82E-12,,
,3.704004,-5.82E-12,,
,3.706004,-6.14E-12,,
,3.708004,-6.79E-12,,
,3.710004,-7.33E-12,,
,3.712004,-7.43E-12,,
,3.714004,-7.43E-12,,
,3.716004,-6.68E-12,,
,3.718004,-6.14E-12,,
,3.720004,-5.61E-12,,
,3.722004,-5.61E-12,,
,3.724004,-5.72E-12,,
,3.726004,-5.93E-12,,
,3.728004,-5.93E-12,,
,3.730004,-5.93E-12,,
,3.732004,-5.61E-12,,
,3.734004,-5.29E-12,,
,3.736004,-4.86E-12,,
,3.738004,-4.96E-12,,
,3.740004,-5.61E-12,,
,3.742004,-6.57E-12,,
,3.744004,-7.11E-12,,
,3.746004,-7.33E-12,,
,3.748004,-7.00E-12,,
,3.750004,-6.47E-12,,
,3.752004,-5.72E-12,,
,3.754004,-5.18E-12,,
,3.756004,-5.07E-12,,
,3.758004,-5.29E-12,,
,3.760004,-5.61E-12,,
,3.762004,-5.61E-12,,
,3.764004,-5.72E-12,,
,3.766004,-5.39E-12,,
,3.768004,-5.39E-12,,
,3.770004,-5.39E-12,,
,3.772004,-5.93E-12,,
,3.774004,-6.57E-12,,
,3.776004,-7.33E-12,,
,3.778004,-7.65E-12,,
,3.780004,-7.43E-12,,
,3.782004,-6.57E-12,,
,3.784004,-5.72E-12,,
,3.786004,-4.86E-12,,
,3.788004,-4.53E-12,,
,3.790004,-4.64E-12,,
,3.792004,-5.39E-12,,
,3.794004,-6.14E-12,,
,3.796004,-6.79E-12,,
,3.798004,-7.00E-12,,
,3.800004,-7.11E-12,,
,3.802004,-7.11E-12,,
,3.804004,-7.33E-12,,
,3.806004,-7.65E-12,,
,3.808004,-8.40E-12,,
,3.810004,-9.04E-12,,
,3.812004,-9.47E-12,,
,3.814004,-9.47E-12,,
,3.816004,-9.26E-12,,
,3.818004,-9.04E-12,,
,3.820004,-8.83E-12,,
,3.822004,-9.04E-12,,
,3.824004,-9.47E-12,,
,3.826004,-1.00E-11,,
,3.828004,-1.03E-11,,
,3.830004,-1.07E-11,,
,3.832004,-1.11E-11,,
,3.834004,-1.14E-11,,
,3.836004,-1.18E-11,,
,3.838004,-1.25E-11,,
,3.840004,-1.34E-11,,
,3.842004,-1.43E-11,,
,3.844004,-1.45E-11,,
,3.846004,-1.46E-11,,
,3.848004,-1.42E-11,,
,3.850004,-1.40E-11,,
,3.852004,-1.37E-11,,
,3.854004,-1.37E-11,,
,3.856004,-1.40E-11,,
,3.858004,-1.46E-11,,
,3.860004,-1.55E-11,,
,3.862004,-1.61E-11,,
,3.864004,-1.65E-11,,
,3.866004,-1.63E-11,,
,3.868004,-1.60E-11,,
,3.870004,-1.59E-11,,
,3.872004,-1.61E-11,,
,3.874004,-1.68E-11,,
,3.876004,-1.70E-11,,
,3.878004,-1.72E-11,,
,3.880004,-1.70E-11,,
,3.882004,-1.70E-11,,
,3.884004,-1.66E-11,,
,3.886004,-1.60E-11,,
,3.888004,-1.58E-11,,
,3.890004,-1.59E-11,,
,3.892004,-1.60E-11,,
,3.894004,-1.60E-11,,
,3.896004,-1.58E-11,,
,3.898004,-1.56E-11,,
,3.900004,-1.52E-11,,
,3.902004,-1.49E-11,,
,3.904004,-1.55E-11,,
,3.906004,-1.61E-11,,
,3.908004,-1.71E-11,,
,3.910004,-1.75E-11,,
,3.912004,-1.77E-11,,
,3.914004,-1.73E-11,,
,3.916004,-1.65E-11,,
,3.918004,-1.54E-11,,
,3.920004,-1.44E-11,,
,3.922004,-1.39E-11,,
,3.924004,-1.40E-11,,
,3.926004,-1.44E-11,,
,3.928004,-1.49E-11,,
,3.930004,-1.55E-11,,
,3.932004,-1.58E-11,,
,3.934004,-1.60E-11,,
,3.936004,-1.59E-11,,
,3.938004,-1.63E-11,,
,3.940004,-1.70E-11,,
,3.942004,-1.77E-11,,
,3.944004,-1.80E-11,,
,3.946004,-1.77E-11,,
,3.948004,-1.69E-11,,
,3.950004,-1.58E-11,,
,3.952004,-1.49E-11,,
,3.954004,-1.46E-11,,
,3.956004,-1.49E-11,,
,3.958004,-1.57E-11,,
,3.960004,-1.67E-11,,
,3.962004,-1.73E-11,,
,3.964004,-1.75E-11,,
,3.966004,-1.75E-11,,
,3.968004,-1.72E-11,,
,3.970004,-1.70E-11,,
,3.972004,-1.71E-11,,
,3.974004,-1.80E-11,,
,3.976004,-1.86E-11,,
,3.978004,-1.88E-11,,
,3.980004,-1.83E-11,,
,3.982004,-1.78E-11,,
,3.984004,-1.74E-11,,
,3.986004,-1.74E-11,,
,3.988004,-1.74E-11,,
,3.990004,-1.78E-11,,
,3.992004,-1.85E-11,,
,3.994004,-1.91E-11,,
,3.996004,-1.96E-11,,
,3.998004,-1.95E-11,,
,4.000004,-1.92E-11,,
,4.002004,-1.92E-11,,
,4.004004,-1.93E-11,,
,4.006004,-2.01E-11,,
,4.008004,-2.07E-11,,
,4.010004,-2.13E-11,,
,4.012004,-2.15E-11,,
,4.014004,-2.11E-11,,
,4.016004,-2.05E-11,,
,4.018004,-1.97E-11,,
,4.020004,-1.90E-11,,
,4.022004,-1.89E-11,,
,4.024004,-1.89E-11,,
,4.026004,-1.92E-11,,
,4.028004,-1.90E-11,,
,4.030004,-1.88E-11,,
,4.032004,-1.84E-11,,
,4.034004,-1.83E-11,,
,4.036004,-1.81E-11,,
,4.038004,-1.82E-11,,
,4.040004,-1.84E-11,,
,4.042004,-1.88E-11,,
,4.044004,-1.89E-11,,
,4.046004,-1.88E-11,,
,4.048004,-1.80E-11,,
,4.050004,-1.67E-11,,
,4.052004,-1.51E-11,,
,4.054004,-1.40E-11,,
,4.056004,-1.34E-11,,
,4.058004,-1.37E-11,,
,4.060004,-1.40E-11,,
,4.062004,-1.44E-11,,
,4.064004,-1.44E-11,,
,4.066004,-1.44E-11,,
,4.068004,-1.41E-11,,
,4.070004,-1.41E-11,,
,4.072004,-1.41E-11,,
,4.074004,-1.43E-11,,
,4.076004,-1.43E-11,,
,4.078004,-1.41E-11,,
,4.080004,-1.37E-11,,
,4.082004,-1.30E-11,,
,4.084004,-1.23E-11,,
,4.086004,-1.17E-11,,
,4.088004,-1.16E-11,,
,4.090004,-1.16E-11,,
,4.092004,-1.18E-11,,
,4.094004,-1.19E-11,,
,4.096004,-1.20E-11,,
,4.098004,-1.19E-11,,
,4.100004,-1.14E-11,,
,4.102004,-1.11E-11,,
,4.104004,-1.10E-11,,
,4.106004,-1.14E-11,,
,4.108004,-1.22E-11,,
,4.110004,-1.25E-11,,
,4.112004,-1.26E-11,,
,4.114004,-1.24E-11,,
,4.116004,-1.19E-11,,
,4.118004,-1.14E-11,,
,4.120004,-1.09E-11,,
,4.122004,-1.11E-11,,
,4.124004,-1.17E-11,,
,4.126004,-1.26E-11,,
,4.128004,-1.33E-11,,
,4.130004,-1.39E-11,,
,4.132004,-1.40E-11,,
,4.134004,-1.39E-11,,
,4.136004,-1.37E-11,,
,4.138004,-1.40E-11,,
,4.140004,-1.45E-11,,
,4.142004,-1.54E-11,,
,4.144004,-1.63E-11,,
,4.146004,-1.69E-11,,
,4.148004,-1.68E-11,,
,4.150004,-1.61E-11,,
,4.152004,-1.57E-11,,
,4.154004,-1.57E-11,,
,4.156004,-1.61E-11,,
,4.158004,-1.68E-11,,
,4.160004,-1.73E-11,,
,4.162004,-1.73E-11,,
,4.164004,-1.71E-11,,
,4.166004,-1.69E-11,,
,4.168004,-1.67E-11,,
,4.170004,-1.67E-11,,
,4.172004,-1.70E-11,,
,4.174004,-1.78E-11,,
,4.176004,-1.85E-11,,
,4.178004,-1.88E-11,,
,4.180004,-1.83E-11,,
,4.182004,-1.75E-11,,
,4.184004,-1.63E-11,,
,4.186004,-1.53E-11,,
,4.188004,-1.46E-11,,
,4.190004,-1.47E-11,,
,4.192004,-1.53E-11,,
,4.194004,-1.57E-11,,
,4.196004,-1.59E-11,,
,4.198004,-1.59E-11,,
,4.200004,-1.58E-11,,
,4.202004,-1.54E-11,,
,4.204004,-1.55E-11,,
,4.206004,-1.57E-11,,
,4.208004,-1.63E-11,,
,4.210004,-1.68E-11,,
,4.212004,-1.68E-11,,
,4.214004,-1.62E-11,,
,4.216004,-1.54E-11,,
,4.218004,-1.47E-11,,
,4.220004,-1.42E-11,,
,4.222004,-1.39E-11,,
,4.224004,-1.39E-11,,
,4.226004,-1.40E-11,,
,4.228004,-1.43E-11,,
,4.230004,-1.41E-11,,
,4.232004,-1.40E-11,,
,4.234004,-1.34E-11,,
,4.236004,-1.33E-11,,
,4.238004,-1.32E-11,,
,4.240004,-1.36E-11,,
,4.242004,-1.40E-11,,
,4.244004,-1.42E-11,,
,4.246004,-1.39E-11,,
,4.248004,-1.29E-11,,
,4.250004,-1.17E-11,,
,4.252004,-1.09E-11,,
,4.254004,-1.01E-11,,
,4.256004,-1.01E-11,,
,4.258004,-1.02E-11,,
,4.260004,-1.08E-11,,
,4.262004,-1.07E-11,,
,4.264004,-1.03E-11,,
,4.266004,-9.69E-12,,
,4.268004,-9.37E-12,,
,4.270004,-9.04E-12,,
,4.272004,-8.94E-12,,
,4.274004,-8.94E-12,,
,4.276004,-9.15E-12,,
,4.278004,-9.26E-12,,
,4.280004,-8.94E-12,,
,4.282004,-8.51E-12,,
,4.284004,-7.86E-12,,
,4.286004,-7.43E-12,,
,4.288004,-7.11E-12,,
,4.290004,-7.43E-12,,
,4.292004,-7.97E-12,,
,4.294004,-8.51E-12,,
,4.296004,-8.18E-12,,
,4.298004,-7.54E-12,,
,4.300004,-6.90E-12,,
,4.302004,-6.79E-12,,
,4.304004,-7.22E-12,,
,4.306004,-7.97E-12,,
,4.308004,-9.04E-12,,
,4.310004,-1.00E-11,,
,4.312004,-1.07E-11,,
,4.314004,-1.07E-11,,
,4.316004,-1.02E-11,,
,4.318004,-9.37E-12,,
,4.320004,-8.61E-12,,
,4.322004,-8.29E-12,,
,4.324004,-8.40E-12,,
,4.326004,-9.26E-12,,
,4.328004,-9.69E-12,,
,4.330004,-1.02E-11,,
,4.332004,-1.00E-11,,
,4.334004,-1.00E-11,,
,4.336004,-9.69E-12,,
,4.338004,-9.90E-12,,
,4.340004,-1.03E-11,,
,4.342004,-1.12E-11,,
,4.344004,-1.18E-11,,
,4.346004,-1.22E-11,,
,4.348004,-1.20E-11,,
,4.350004,-1.17E-11,,
,4.352004,-1.13E-11,,
,4.354004,-1.13E-11,,
,4.356004,-1.15E-11,,
,4.358004,-1.20E-11,,
,4.360004,-1.23E-11,,
,4.362004,-1.27E-11,,
,4.364004,-1.28E-11,,
,4.366004,-1.29E-11,,
,4.368004,-1.28E-11,,
,4.370004,-1.30E-11,,
,4.372004,-1.38E-11,,
,4.374004,-1.48E-11,,
,4.376004,-1.60E-11,,
,4.378004,-1.68E-11,,
,4.380004,-1.70E-11,,
,4.382004,-1.67E-11,,
,4.384004,-1.62E-11,,
,4.386004,-1.58E-11,,
,4.388004,-1.59E-11,,
,4.390004,-1.62E-11,,
,4.392004,-1.68E-11,,
,4.394004,-1.73E-11,,
,4.396004,-1.73E-11,,
,4.398004,-1.75E-11,,
,4.400004,-1.70E-11,,
,4.402004,-1.70E-11,,
,4.404004,-1.67E-11,,
,4.406004,-1.71E-11,,
,4.408004,-1.76E-11,,
,4.410004,-1.83E-11,,
,4.412004,-1.86E-11,,
,4.414004,-1.85E-11,,
,4.416004,-1.78E-11,,
,4.418004,-1.72E-11,,
,4.420004,-1.67E-11,,
,4.422004,-1.63E-11,,
,4.424004,-1.63E-11,,
,4.426004,-1.61E-11,,
,4.428004,-1.60E-11,,
,4.430004,-1.55E-11,,
,4.432004,-1.49E-11,,
,4.434004,-1.42E-11,,
,4.436004,-1.39E-11,,
,4.438004,-1.40E-11,,
,4.440004,-1.48E-11,,
,4.442004,-1.55E-11,,
,4.444004,-1.58E-11,,
,4.446004,-1.56E-11,,
,4.448004,-1.51E-11,,
,4.450004,-1.43E-11,,
,4.452004,-1.32E-11,,
,4.454004,-1.25E-11,,
,4.456004,-1.17E-11,,
,4.458004,-1.15E-11,,
,4.460004,-1.15E-11,,
,4.462004,-1.17E-11,,
,4.464004,-1.17E-11,,
,4.466004,-1.13E-11,,
,4.468004,-1.10E-11,,
,4.470004,-1.11E-11,,
,4.472004,-1.15E-11,,
,4.474004,-1.23E-11,,
,4.476004,-1.28E-11,,
,4.478004,-1.32E-11,,
,4.480004,-1.30E-11,,
,4.482004,-1.23E-11,,
,4.484004,-1.13E-11,,
,4.486004,-1.02E-11,,
,4.488004,-9.69E-12,,
,4.490004,-9.37E-12,,
,4.492004,-9.58E-12,,
,4.494004,-9.69E-12,,
,4.496004,-9.90E-12,,
,4.498004,-1.00E-11,,
,4.500004,-1.01E-11,,
,4.502004,-1.01E-11,,
,4.504004,-1.02E-11,,
,4.506004,-1.09E-11,,
,4.508004,-1.16E-11,,
,4.510004,-1.22E-11,,
,4.512004,-1.20E-11,,
,4.514004,-1.15E-11,,
,4.516004,-1.05E-11,,
,4.518004,-9.58E-12,,
,4.520004,-8.83E-12,,
,4.522004,-8.72E-12,,
,4.524004,-8.94E-12,,
,4.526004,-9.58E-12,,
,4.528004,-9.90E-12,,
,4.530004,-1.02E-11,,
,4.532004,-1.01E-11,,
,4.534004,-1.04E-11,,
,4.536004,-1.04E-11,,
,4.538004,-1.10E-11,,
,4.540004,-1.11E-11,,
,4.542004,-1.17E-11,,
,4.544004,-1.19E-11,,
,4.546004,-1.24E-11,,
,4.548004,-1.22E-11,,
,4.550004,-1.15E-11,,
,4.552004,-1.07E-11,,
,4.554004,-1.00E-11,,
,4.556004,-1.00E-11,,
,4.558004,-1.04E-11,,
,4.560004,-1.10E-11,,
,4.562004,-1.12E-11,,
,4.564004,-1.12E-11,,
,4.566004,-1.10E-11,,
,4.568004,-1.08E-11,,
,4.570004,-1.09E-11,,
,4.572004,-1.14E-11,,
,4.574004,-1.25E-11,,
,4.576004,-1.33E-11,,
,4.578004,-1.39E-11,,
,4.580004,-1.38E-11,,
,4.582004,-1.31E-11,,
,4.584004,-1.23E-11,,
,4.586004,-1.14E-11,,
,4.588004,-1.08E-11,,
,4.590004,-1.09E-11,,
,4.592004,-1.11E-11,,
,4.594004,-1.16E-11,,
,4.596004,-1.18E-11,,
,4.598004,-1.20E-11,,
,4.600004,-1.22E-11,,
,4.602004,-1.23E-11,,
,4.604004,-1.27E-11,,
,4.606004,-1.33E-11,,
,4.608004,-1.43E-11,,
,4.610004,-1.49E-11,,
,4.612004,-1.55E-11,,
,4.614004,-1.51E-11,,
,4.616004,-1.44E-11,,
,4.618004,-1.31E-11,,
,4.620004,-1.25E-11,,
,4.622004,-1.24E-11,,
,4.624004,-1.30E-11,,
,4.626004,-1.36E-11,,
,4.628004,-1.39E-11,,
,4.630004,-1.42E-11,,
,4.632004,-1.44E-11,,
,4.634004,-1.47E-11,,
,4.636004,-1.49E-11,,
,4.638004,-1.56E-11,,
,4.640004,-1.65E-11,,
,4.642004,-1.73E-11,,
,4.644004,-1.78E-11,,
,4.646004,-1.78E-11,,
,4.648004,-1.75E-11,,
,4.650004,-1.65E-11,,
,4.652004,-1.54E-11,,
,4.654004,-1.47E-11,,
,4.656004,-1.47E-11,,
,4.658004,-1.53E-11,,
,4.660004,-1.59E-11,,
,4.662004,-1.68E-11,,
,4.664004,-1.72E-11,,
,4.666004,-1.74E-11,,
,4.668004,-1.73E-11,,
,4.670004,-1.75E-11,,
,4.672004,-1.77E-11,,
,4.674004,-1.81E-11,,
,4.676004,-1.84E-11,,
,4.678004,-1.85E-11,,
,4.680004,-1.84E-11,,
,4.682004,-1.78E-11,,
,4.684004,-1.70E-11,,
,4.686004,-1.62E-11,,
,4.688004,-1.60E-11,,
,4.690004,-1.63E-11,,
,4.692004,-1.69E-11,,
,4.694004,-1.72E-11,,
,4.696004,-1.73E-11,,
,4.698004,-1.71E-11,,
,4.700004,-1.65E-11,,
,4.702004,-1.58E-11,,
,4.704004,-1.56E-11,,
,4.706004,-1.58E-11,,
,4.708004,-1.66E-11,,
,4.710004,-1.70E-11,,
,4.712004,-1.72E-11,,
,4.714004,-1.65E-11,,
,4.716004,-1.53E-11,,
,4.718004,-1.40E-11,,
,4.720004,-1.30E-11,,
,4.722004,-1.25E-11,,
,4.724004,-1.22E-11,,
,4.726004,-1.23E-11,,
,4.728004,-1.24E-11,,
,4.730004,-1.24E-11,,
,4.732004,-1.18E-11,,
,4.734004,-1.13E-11,,
,4.736004,-1.10E-11,,
,4.738004,-1.12E-11,,
,4.740004,-1.18E-11,,
,4.742004,-1.23E-11,,
,4.744004,-1.25E-11,,
,4.746004,-1.20E-11,,
,4.748004,-1.13E-11,,
,4.750004,-1.00E-11,,
,4.752004,-8.94E-12,,
,4.754004,-8.18E-12,,
,4.756004,-8.18E-12,,
,4.758004,-8.29E-12,,
,4.760004,-8.61E-12,,
,4.762004,-8.61E-12,,
,4.764004,-8.29E-12,,
,4.766004,-7.86E-12,,
,4.768004,-7.22E-12,,
,4.770004,-7.11E-12,,
,4.772004,-7.11E-12,,
,4.774004,-7.65E-12,,
,4.776004,-7.97E-12,,
,4.778004,-8.08E-12,,
,4.780004,-7.65E-12,,
,4.782004,-7.00E-12,,
,4.784004,-6.25E-12,,
,4.786004,-5.39E-12,,
,4.788004,-4.86E-12,,
,4.790004,-4.75E-12,,
,4.792004,-5.18E-12,,
,4.794004,-5.50E-12,,
,4.796004,-5.50E-12,,
,4.798004,-5.07E-12,,
,4.800004,-4.53E-12,,
,4.802004,-4.00E-12,,
,4.804004,-3.89E-12,,
,4.806004,-4.43E-12,,
,4.808004,-5.07E-12,,
,4.810004,-5.82E-12,,
,4.812004,-5.72E-12,,
,4.814004,-5.39E-12,,
,4.816004,-4.32E-12,,
,4.818004,-3.25E-12,,
,4.820004,-2.39E-12,,
,4.822004,-2.07E-12,,
,4.824004,-2.49E-12,,
,4.826004,-2.82E-12,,
,4.828004,-3.25E-12,,
,4.830004,-3.14E-12,,
,4.832004,-2.92E-12,,
,4.834004,-2.60E-12,,
,4.836004,-2.28E-12,,
,4.838004,-2.71E-12,,
,4.840004,-3.35E-12,,
,4.842004,-4.43E-12,,
,4.844004,-5.07E-12,,
,4.846004,-5.50E-12,,
,4.848004,-5.18E-12,,
,4.850004,-4.43E-12,,
,4.852004,-3.68E-12,,
,4.854004,-3.35E-12,,
,4.856004,-3.57E-12,,
,4.858004,-4.10E-12,,
,4.860004,-4.64E-12,,
,4.862004,-5.18E-12,,
,4.864004,-5.39E-12,,
,4.866004,-5.82E-12,,
,4.868004,-6.25E-12,,
,4.870004,-6.79E-12,,
,4.872004,-7.54E-12,,
,4.874004,-8.40E-12,,
,4.876004,-9.47E-12,,
,4.878004,-1.00E-11,,
,4.880004,-1.00E-11,,
,4.882004,-9.69E-12,,
,4.884004,-9.26E-12,,
,4.886004,-9.04E-12,,
,4.888004,-9.04E-12,,
,4.890004,-9.69E-12,,
,4.892004,-1.07E-11,,
,4.894004,-1.18E-11,,
,4.896004,-1.25E-11,,
,4.898004,-1.28E-11,,
,4.900004,-1.25E-11,,
,4.902004,-1.24E-11,,
,4.904004,-1.24E-11,,
,4.906004,-1.31E-11,,
,4.908004,-1.40E-11,,
,4.910004,-1.51E-11,,
,4.912004,-1.55E-11,,
,4.914004,-1.58E-11,,
,4.916004,-1.57E-11,,
,4.918004,-1.55E-11,,
,4.920004,-1.51E-11,,
,4.922004,-1.51E-11,,
,4.924004,-1.55E-11,,
,4.926004,-1.62E-11,,
,4.928004,-1.66E-11,,
,4.930004,-1.65E-11,,
,4.932004,-1.62E-11,,
,4.934004,-1.61E-11,,
,4.936004,-1.63E-11,,
,4.938004,-1.66E-11,,
,4.940004,-1.73E-11,,
,4.942004,-1.82E-11,,
,4.944004,-1.87E-11,,
,4.946004,-1.87E-11,,
,4.948004,-1.83E-11,,
,4.950004,-1.78E-11,,
,4.952004,-1.71E-11,,
,4.954004,-1.66E-11,,
,4.956004,-1.65E-11,,
,4.958004,-1.70E-11,,
,4.960004,-1.74E-11,,
,4.962004,-1.76E-11,,
,4.964004,-1.74E-11,,
,4.966004,-1.72E-11,,
,4.968004,-1.67E-11,,
,4.970004,-1.65E-11,,
,4.972004,-1.67E-11,,
,4.974004,-1.75E-11,,
,4.976004,-1.84E-11,,
,4.978004,-1.89E-11,,
,4.980004,-1.89E-11,,
,4.982004,-1.84E-11,,
,4.984004,-1.75E-11,,
,4.986004,-1.68E-11,,
,4.988004,-1.66E-11,,
,4.990004,-1.67E-11,,
,4.992004,-1.72E-11,,
,4.994004,-1.75E-11,,
,4.996004,-1.75E-11,,
,4.998004,-1.71E-11,,
,5.000004,-1.68E-11,,
,5.002004,-1.65E-11,,
,5.004004,-1.65E-11,,
,5.006004,-1.66E-11,,
,5.008004,-1.70E-11,,
,5.010004,-1.72E-11,,
,5.012004,-1.74E-11,,
,5.014004,-1.73E-11,,
,5.016004,-1.68E-11,,
,5.018004,-1.57E-11,,
,5.020004,-1.47E-11,,
,5.022004,-1.45E-11,,
,5.024004,-1.46E-11,,
,5.026004,-1.49E-11,,
,5.028004,-1.46E-11,,
,5.030004,-1.44E-11,,
,5.032004,-1.41E-11,,
,5.034004,-1.41E-11,,
,5.036004,-1.38E-11,,
,5.038004,-1.39E-11,,
,5.040004,-1.40E-11,,
,5.042004,-1.47E-11,,
,5.044004,-1.52E-11,,
,5.046004,-1.54E-11,,
,5.048004,-1.46E-11,,
,5.050004,-1.34E-11,,
,5.052004,-1.23E-11,,
,5.054004,-1.14E-11,,
,5.056004,-1.11E-11,,
,5.058004,-1.10E-11,,
,5.060004,-1.11E-11,,
,5.062004,-1.10E-11,,
,5.064004,-1.07E-11,,
,5.066004,-1.03E-11,,
,5.068004,-9.90E-12,,
,5.070004,-9.69E-12,,
,5.072004,-9.79E-12,,
,5.074004,-1.03E-11,,
,5.076004,-1.10E-11,,
,5.078004,-1.13E-11,,
,5.080004,-1.11E-11,,
,5.082004,-1.07E-11,,
,5.084004,-9.90E-12,,
,5.086004,-9.37E-12,,
,5.088004,-8.72E-12,,
,5.090004,-8.61E-12,,
,5.092004,-8.61E-12,,
,5.094004,-9.04E-12,,
,5.096004,-9.04E-12,,
,5.098004,-8.94E-12,,
,5.100004,-8.51E-12,,
,5.102004,-8.08E-12,,
,5.104004,-7.97E-12,,
,5.106004,-8.40E-12,,
,5.108004,-9.26E-12,,
,5.110004,-1.02E-11,,
,5.112004,-1.05E-11,,
,5.114004,-1.08E-11,,
,5.116004,-1.02E-11,,
,5.118004,-9.69E-12,,
,5.120004,-8.72E-12,,
,5.122004,-8.51E-12,,
,5.124004,-8.51E-12,,
,5.126004,-8.94E-12,,
,5.128004,-9.15E-12,,
,5.130004,-9.37E-12,,
,5.132004,-9.37E-12,,
,5.134004,-9.37E-12,,
,5.136004,-9.37E-12,,
,5.138004,-9.79E-12,,
,5.140004,-1.04E-11,,
,5.142004,-1.12E-11,,
,5.144004,-1.18E-11,,
,5.146004,-1.19E-11,,
,5.148004,-1.20E-11,,
,5.150004,-1.15E-11,,
,5.152004,-1.13E-11,,
,5.154004,-1.09E-11,,
,5.156004,-1.11E-11,,
,5.158004,-1.15E-11,,
,5.160004,-1.23E-11,,
,5.162004,-1.25E-11,,
,5.164004,-1.26E-11,,
,5.166004,-1.24E-11,,
,5.168004,-1.24E-11,,
,5.170004,-1.24E-11,,
,5.172004,-1.30E-11,,
,5.174004,-1.42E-11,,
,5.176004,-1.57E-11,,
,5.178004,-1.67E-11,,
,5.180004,-1.71E-11,,
,5.182004,-1.71E-11,,
,5.184004,-1.68E-11,,
,5.186004,-1.65E-11,,
,5.188004,-1.60E-11,,
,5.190004,-1.61E-11,,
,5.192004,-1.65E-11,,
,5.194004,-1.69E-11,,
,5.196004,-1.73E-11,,
,5.198004,-1.74E-11,,
,5.200004,-1.75E-11,,
,5.202004,-1.75E-11,,
,5.204004,-1.78E-11,,
,5.206004,-1.86E-11,,
,5.208004,-1.93E-11,,
,5.210004,-2.00E-11,,
,5.212004,-2.01E-11,,
,5.214004,-2.00E-11,,
,5.216004,-1.97E-11,,
,5.218004,-1.89E-11,,
,5.220004,-1.83E-11,,
,5.222004,-1.77E-11,,
,5.224004,-1.80E-11,,
,5.226004,-1.81E-11,,
,5.228004,-1.80E-11,,
,5.230004,-1.75E-11,,
,5.232004,-1.68E-11,,
,5.234004,-1.63E-11,,
,5.236004,-1.60E-11,,
,5.238004,-1.61E-11,,
,5.240004,-1.66E-11,,
,5.242004,-1.72E-11,,
,5.244004,-1.78E-11,,
,5.246004,-1.81E-11,,
,5.248004,-1.73E-11,,
,5.250004,-1.63E-11,,
,5.252004,-1.52E-11,,
,5.254004,-1.44E-11,,
,5.256004,-1.41E-11,,
,5.258004,-1.40E-11,,
,5.260004,-1.44E-11,,
,5.262004,-1.42E-11,,
,5.264004,-1.44E-11,,
,5.266004,-1.41E-11,,
,5.268004,-1.41E-11,,
,5.270004,-1.40E-11,,
,5.272004,-1.42E-11,,
,5.274004,-1.47E-11,,
,5.276004,-1.52E-11,,
,5.278004,-1.54E-11,,
,5.280004,-1.52E-11,,
,5.282004,-1.46E-11,,
,5.284004,-1.39E-11,,
,5.286004,-1.30E-11,,
,5.288004,-1.24E-11,,
,5.290004,-1.20E-11,,
,5.292004,-1.22E-11,,
,5.294004,-1.23E-11,,
,5.296004,-1.23E-11,,
,5.298004,-1.22E-11,,
,5.300004,-1.19E-11,,
,5.302004,-1.18E-11,,
,5.304004,-1.17E-11,,
,5.306004,-1.19E-11,,
,5.308004,-1.24E-11,,
,5.310004,-1.28E-11,,
,5.312004,-1.28E-11,,
,5.314004,-1.23E-11,,
,5.316004,-1.13E-11,,
,5.318004,-1.03E-11,,
,5.320004,-9.47E-12,,
,5.322004,-9.26E-12,,
,5.324004,-9.15E-12,,
,5.326004,-9.47E-12,,
,5.328004,-9.47E-12,,
,5.330004,-9.79E-12,,
,5.332004,-9.79E-12,,
,5.334004,-9.79E-12,,
,5.336004,-9.69E-12,,
,5.338004,-9.90E-12,,
,5.340004,-1.02E-11,,
,5.342004,-1.05E-11,,
,5.344004,-1.03E-11,,
,5.346004,-1.00E-11,,
,5.348004,-9.37E-12,,
,5.350004,-8.72E-12,,
,5.352004,-7.86E-12,,
,5.354004,-7.43E-12,,
,5.356004,-7.54E-12,,
,5.358004,-8.29E-12,,
,5.360004,-8.94E-12,,
,5.362004,-9.37E-12,,
,5.364004,-9.37E-12,,
,5.366004,-9.15E-12,,
,5.368004,-8.94E-12,,
,5.370004,-8.72E-12,,
,5.372004,-8.72E-12,,
,5.374004,-9.04E-12,,
,5.376004,-9.37E-12,,
,5.378004,-9.37E-12,,
,5.380004,-8.94E-12,,
,5.382004,-8.08E-12,,
,5.384004,-7.33E-12,,
,5.386004,-6.57E-12,,
,5.388004,-6.47E-12,,
,5.390004,-6.90E-12,,
,5.392004,-7.54E-12,,
,5.394004,-8.08E-12,,
,5.396004,-7.86E-12,,
,5.398004,-7.33E-12,,
,5.400004,-6.57E-12,,
,5.402004,-6.04E-12,,
,5.404004,-5.72E-12,,
,5.406004,-5.61E-12,,
,5.408004,-5.82E-12,,
,5.410004,-6.04E-12,,
,5.412004,-6.36E-12,,
,5.414004,-6.25E-12,,
,5.416004,-6.04E-12,,
,5.418004,-5.61E-12,,
,5.420004,-5.39E-12,,
,5.422004,-5.61E-12,,
,5.424004,-6.04E-12,,
,5.426004,-6.47E-12,,
,5.428004,-6.57E-12,,
,5.430004,-6.36E-12,,
,5.432004,-5.82E-12,,
,5.434004,-5.07E-12,,
,5.436004,-4.75E-12,,
,5.438004,-4.86E-12,,
,5.440004,-5.61E-12,,
,5.442004,-6.68E-12,,
,5.444004,-7.75E-12,,
,5.446004,-8.29E-12,,
,5.448004,-8.29E-12,,
,5.450004,-7.65E-12,,
,5.452004,-6.90E-12,,
,5.454004,-6.36E-12,,
,5.456004,-5.93E-12,,
,5.458004,-5.93E-12,,
,5.460004,-5.82E-12,,
,5.462004,-6.04E-12,,
,5.464004,-5.82E-12,,
,5.466004,-5.50E-12,,
,5.468004,-5.07E-12,,
,5.470004,-4.64E-12,,
,5.472004,-4.64E-12,,
,5.474004,-4.86E-12,,
,5.476004,-5.18E-12,,
,5.478004,-5.18E-12,,
,5.480004,-4.86E-12,,
,5.482004,-4.32E-12,,
,5.484004,-3.78E-12,,
,5.486004,-3.57E-12,,
,5.488004,-3.46E-12,,
,5.490004,-3.78E-12,,
,5.492004,-4.10E-12,,
,5.494004,-4.43E-12,,
,5.496004,-4.10E-12,,
,5.498004,-3.46E-12,,
,5.500004,-2.71E-12,,
,5.502004,-1.96E-12,,
,5.504004,-1.85E-12,,
,5.506004,-2.39E-12,,
,5.508004,-3.46E-12,,
,5.510004,-4.43E-12,,
,5.512004,-5.07E-12,,
,5.514004,-5.29E-12,,
,5.516004,-5.18E-12,,
,5.518004,-4.96E-12,,
,5.520004,-4.64E-12,,
,5.522004,-4.43E-12,,
,5.524004,-4.64E-12,,
,5.526004,-5.07E-12,,
,5.528004,-5.61E-12,,
,5.530004,-5.82E-12,,
,5.532004,-5.82E-12,,
,5.534004,-5.61E-12,,
,5.536004,-5.82E-12,,
,5.538004,-6.04E-12,,
,5.540004,-7.00E-12,,
,5.542004,-7.86E-12,,
,5.544004,-9.15E-12,,
,5.546004,-9.90E-12,,
,5.548004,-1.04E-11,,
,5.550004,-1.03E-11,,
,5.552004,-9.79E-12,,
,5.554004,-9.15E-12,,
,5.556004,-8.94E-12,,
,5.558004,-9.04E-12,,
,5.560004,-9.15E-12,,
,5.562004,-9.04E-12,,
,5.564004,-8.72E-12,,
,5.566004,-8.29E-12,,
,5.568004,-7.86E-12,,
,5.570004,-7.86E-12,,
,5.572004,-8.29E-12,,
,5.574004,-9.47E-12,,
,5.576004,-1.07E-11,,
,5.578004,-1.13E-11,,
,5.580004,-1.11E-11,,
,5.582004,-1.01E-11,,
,5.584004,-8.94E-12,,
,5.586004,-7.54E-12,,
,5.588004,-6.36E-12,,
,5.590004,-5.93E-12,,
,5.592004,-6.04E-12,,
,5.594004,-6.47E-12,,
,5.596004,-6.68E-12,,
,5.598004,-6.57E-12,,
,5.600004,-6.68E-12,,
,5.602004,-6.57E-12,,
,5.604004,-7.00E-12,,
,5.606004,-7.11E-12,,
,5.608004,-7.65E-12,,
,5.610004,-7.86E-12,,
,5.612004,-8.18E-12,,
,5.614004,-7.86E-12,,
,5.616004,-7.22E-12,,
,5.618004,-6.47E-12,,
,5.620004,-5.82E-12,,
,5.622004,-5.72E-12,,
,5.624004,-5.93E-12,,
,5.626004,-6.36E-12,,
,5.628004,-6.57E-12,,
,5.630004,-6.36E-12,,
,5.632004,-6.25E-12,,
,5.634004,-6.04E-12,,
,5.636004,-6.04E-12,,
,5.638004,-6.14E-12,,
,5.640004,-6.57E-12,,
,5.642004,-7.43E-12,,
,5.644004,-8.18E-12,,
,5.646004,-8.29E-12,,
,5.648004,-7.65E-12,,
,5.650004,-6.79E-12,,
,5.652004,-6.04E-12,,
,5.654004,-5.50E-12,,
,5.656004,-5.39E-12,,
,5.658004,-5.50E-12,,
,5.660004,-5.93E-12,,
,5.662004,-6.14E-12,,
,5.664004,-6.47E-12,,
,5.666004,-6.57E-12,,
,5.668004,-6.57E-12,,
,5.670004,-6.47E-12,,
,5.672004,-6.68E-12,,
,5.674004,-7.22E-12,,
,5.676004,-7.97E-12,,
,5.678004,-8.18E-12,,
,5.680004,-8.08E-12,,
,5.682004,-7.75E-12,,
,5.684004,-7.33E-12,,
,5.686004,-6.90E-12,,
,5.688004,-6.79E-12,,
,5.690004,-7.22E-12,,
,5.692004,-8.18E-12,,
,5.694004,-9.04E-12,,
,5.696004,-9.58E-12,,
,5.698004,-9.79E-12,,
,5.700004,-9.90E-12,,
,5.702004,-9.90E-12,,
,5.704004,-1.01E-11,,
,5.706004,-1.08E-11,,
,5.708004,-1.20E-11,,
,5.710004,-1.32E-11,,
,5.712004,-1.40E-11,,
,5.714004,-1.44E-11,,
,5.716004,-1.43E-11,,
,5.718004,-1.43E-11,,
,5.720004,-1.41E-11,,
,5.722004,-1.43E-11,,
,5.724004,-1.48E-11,,
,5.726004,-1.55E-11,,
,5.728004,-1.61E-11,,
,5.730004,-1.63E-11,,
,5.732004,-1.65E-11,,
,5.734004,-1.65E-11,,
,5.736004,-1.67E-11,,
,5.738004,-1.73E-11,,
,5.740004,-1.84E-11,,
,5.742004,-1.95E-11,,
,5.744004,-2.05E-11,,
,5.746004,-2.12E-11,,
,5.748004,-2.15E-11,,
,5.750004,-2.13E-11,,
,5.752004,-2.10E-11,,
,5.754004,-2.07E-11,,
,5.756004,-2.11E-11,,
,5.758004,-2.17E-11,,
,5.760004,-2.27E-11,,
,5.762004,-2.34E-11,,
,5.764004,-2.40E-11,,
,5.766004,-2.40E-11,,
,5.768004,-2.40E-11,,
,5.770004,-2.38E-11,,
,5.772004,-2.45E-11,,
,5.774004,-2.56E-11,,
,5.776004,-2.70E-11,,
,5.778004,-2.75E-11,,
,5.780004,-2.75E-11,,
,5.782004,-2.72E-11,,
,5.784004,-2.66E-11,,
,5.786004,-2.62E-11,,
,5.788004,-2.59E-11,,
,5.790004,-2.62E-11,,
,5.792004,-2.68E-11,,
,5.794004,-2.73E-11,,
,5.796004,-2.77E-11,,
,5.798004,-2.77E-11,,
,5.800004,-2.76E-11,,
,5.802004,-2.74E-11,,
,5.804004,-2.73E-11,,
,5.806004,-2.75E-11,,
,5.808004,-2.78E-11,,
,5.810004,-2.83E-11,,
,5.812004,-2.86E-11,,
,5.814004,-2.84E-11,,
,5.816004,-2.80E-11,,
,5.818004,-2.74E-11,,
,5.820004,-2.72E-11,,
,5.822004,-2.71E-11,,
,5.824004,-2.75E-11,,
,5.826004,-2.82E-11,,
,5.828004,-2.85E-11,,
,5.830004,-2.85E-11,,
,5.832004,-2.79E-11,,
,5.834004,-2.74E-11,,
,5.836004,-2.68E-11,,
,5.838004,-2.63E-11,,
,5.840004,-2.66E-11,,
,5.842004,-2.75E-11,,
,5.844004,-2.84E-11,,
,5.846004,-2.88E-11,,
,5.848004,-2.86E-11,,
,5.850004,-2.79E-11,,
,5.852004,-2.71E-11,,
,5.854004,-2.63E-11,,
,5.856004,-2.60E-11,,
,5.858004,-2.60E-11,,
,5.860004,-2.61E-11,,
,5.862004,-2.61E-11,,
,5.864004,-2.59E-11,,
,5.866004,-2.56E-11,,
,5.868004,-2.53E-11,,
,5.870004,-2.51E-11,,
,5.872004,-2.54E-11,,
,5.874004,-2.60E-11,,
,5.876004,-2.65E-11,,
,5.878004,-2.66E-11,,
,5.880004,-2.61E-11,,
,5.882004,-2.54E-11,,
,5.884004,-2.44E-11,,
,5.886004,-2.36E-11,,
,5.888004,-2.27E-11,,
,5.890004,-2.25E-11,,
,5.892004,-2.25E-11,,
,5.894004,-2.29E-11,,
,5.896004,-2.28E-11,,
,5.898004,-2.24E-11,,
,5.900004,-2.17E-11,,
,5.902004,-2.12E-11,,
,5.904004,-2.09E-11,,
,5.906004,-2.11E-11,,
,5.908004,-2.15E-11,,
,5.910004,-2.17E-11,,
,5.912004,-2.14E-11,,
,5.914004,-2.07E-11,,
,5.916004,-2.01E-11,,
,5.918004,-1.93E-11,,
,5.920004,-1.84E-11,,
,5.922004,-1.76E-11,,
,5.924004,-1.74E-11,,
,5.926004,-1.80E-11,,
,5.928004,-1.84E-11,,
,5.930004,-1.84E-11,,
,5.932004,-1.78E-11,,
,5.934004,-1.71E-11,,
,5.936004,-1.65E-11,,
,5.938004,-1.61E-11,,
,5.940004,-1.63E-11,,
,5.942004,-1.67E-11,,
,5.944004,-1.67E-11,,
,5.946004,-1.66E-11,,
,5.948004,-1.58E-11,,
,5.950004,-1.51E-11,,
,5.952004,-1.41E-11,,
,5.954004,-1.37E-11,,
,5.956004,-1.36E-11,,
,5.958004,-1.38E-11,,
,5.960004,-1.41E-11,,
,5.962004,-1.41E-11,,
,5.964004,-1.38E-11,,
,5.966004,-1.33E-11,,
,5.968004,-1.28E-11,,
,5.970004,-1.26E-11,,
,5.972004,-1.27E-11,,
,5.974004,-1.33E-11,,
,5.976004,-1.40E-11,,
,5.978004,-1.43E-11,,
,5.980004,-1.43E-11,,
,5.982004,-1.38E-11,,
,5.984004,-1.31E-11,,
,5.986004,-1.25E-11,,
,5.988004,-1.24E-11,,
,5.990004,-1.26E-11,,
,5.992004,-1.31E-11,,
,5.994004,-1.37E-11,,
,5.996004,-1.40E-11,,
,5.998004,-1.43E-11,,
,6.000004,-1.42E-11,,
,6.002004,-1.41E-11,,
,6.004004,-1.40E-11,,
,6.006004,-1.45E-11,,
,6.008004,-1.51E-11,,
,6.010004,-1.55E-11,,
,6.012004,-1.55E-11,,
,6.014004,-1.55E-11,,
,6.016004,-1.52E-11,,
,6.018004,-1.46E-11,,
,6.020004,-1.42E-11,,
,6.022004,-1.42E-11,,
,6.024004,-1.51E-11,,
,6.026004,-1.59E-11,,
,6.028004,-1.69E-11,,
,6.030004,-1.70E-11,,
,6.032004,-1.69E-11,,
,6.034004,-1.62E-11,,
,6.036004,-1.57E-11,,
,6.038004,-1.57E-11,,
,6.040004,-1.61E-11,,
,6.042004,-1.67E-11,,
,6.044004,-1.70E-11,,
,6.046004,-1.69E-11,,
,6.048004,-1.66E-11,,
,6.050004,-1.58E-11,,
,6.052004,-1.51E-11,,
,6.054004,-1.45E-11,,
,6.056004,-1.46E-11,,
,6.058004,-1.52E-11,,
,6.060004,-1.58E-11,,
,6.062004,-1.62E-11,,
,6.064004,-1.60E-11,,
,6.066004,-1.56E-11,,
,6.068004,-1.47E-11,,
,6.070004,-1.41E-11,,
,6.072004,-1.37E-11,,
,6.074004,-1.33E-11,,
,6.076004,-1.31E-11,,
,6.078004,-1.26E-11,,
,6.080004,-1.19E-11,,
,6.082004,-1.13E-11,,
,6.084004,-1.04E-11,,
,6.086004,-9.90E-12,,
,6.088004,-9.47E-12,,
,6.090004,-9.47E-12,,
,6.092004,-9.90E-12,,
,6.094004,-1.00E-11,,
,6.096004,-1.00E-11,,
,6.098004,-9.04E-12,,
,6.100004,-7.97E-12,,
,6.102004,-6.47E-12,,
,6.104004,-5.29E-12,,
,6.106004,-4.75E-12,,
,6.108004,-4.64E-12,,
,6.110004,-4.53E-12,,
,6.112004,-4.32E-12,,
,6.114004,-4.21E-12,,
,6.116004,-4.00E-12,,
,6.118004,-3.35E-12,,
,6.120004,-2.60E-12,,
,6.122004,-2.17E-12,,
,6.124004,-2.39E-12,,
,6.126004,-2.82E-12,,
,6.128004,-3.03E-12,,
,6.130004,-2.71E-12,,
,6.132004,-1.96E-12,,
,6.134004,-1.21E-12,,
,6.136004,-3.47E-13,,
,6.138004,1.89E-13,,
,6.140004,2.97E-13,,
,6.142004,-2.40E-13,,
,6.144004,-6.69E-13,,
,6.146004,-7.77E-13,,
,6.148004,-4.55E-13,,
,6.150004,-2.53E-14,,
,6.152004,1.89E-13,,
,6.154004,2.97E-13,,
,6.156004,-1.33E-13,,
,6.158004,-4.55E-13,,
,6.160004,-6.69E-13,,
,6.162004,-3.47E-13,,
,6.164004,1.89E-13,,
,6.166004,1.05E-12,,
,6.168004,1.91E-12,,
,6.170004,2.77E-12,,
,6.172004,2.98E-12,,
,6.174004,2.87E-12,,
,6.176004,2.23E-12,,
,6.178004,1.37E-12,,
,6.180004,8.34E-13,,
,6.182004,8.34E-13,,
,6.184004,1.05E-12,,
,6.186004,1.26E-12,,
,6.188004,1.16E-12,,
,6.190004,1.26E-12,,
,6.192004,8.34E-13,,
,6.194004,8.34E-13,,
,6.196004,8.34E-13,,
,6.198004,1.16E-12,,
,6.200004,1.26E-12,,
,6.202004,1.48E-12,,
,6.204004,1.80E-12,,
,6.206004,1.59E-12,,
,6.208004,1.26E-12,,
,6.210004,4.04E-13,,
,6.212004,-2.53E-14,,
,6.214004,-3.47E-13,,
,6.216004,8.20E-14,,
,6.218004,2.97E-13,,
,6.220004,4.04E-13,,
,6.222004,8.20E-14,,
,6.224004,-3.47E-13,,
,6.226004,-7.77E-13,,
,6.228004,-1.10E-12,,
,6.230004,-1.10E-12,,
,6.232004,-8.84E-13,,
,6.234004,-2.40E-13,,
,6.236004,2.97E-13,,
,6.238004,2.97E-13,,
,6.240004,-3.47E-13,,
,6.242004,-1.21E-12,,
,6.244004,-1.96E-12,,
,6.246004,-2.82E-12,,
,6.248004,-3.14E-12,,
,6.250004,-3.35E-12,,
,6.252004,-3.25E-12,,
,6.254004,-3.35E-12,,
,6.256004,-3.78E-12,,
,6.258004,-4.53E-12,,
,6.260004,-5.39E-12,,
,6.262004,-5.93E-12,,
,6.264004,-6.25E-12,,
,6.266004,-6.14E-12,,
,6.268004,-5.82E-12,,
,6.270004,-5.61E-12,,
,6.272004,-5.93E-12,,
,6.274004,-6.79E-12,,
,6.276004,-7.75E-12,,
,6.278004,-8.51E-12,,
,6.280004,-9.04E-12,,
,6.282004,-9.15E-12,,
,6.284004,-9.26E-12,,
,6.286004,-9.37E-12,,
,6.288004,-9.90E-12,,
,6.290004,-1.08E-11,,
,6.292004,-1.16E-11,,
,6.294004,-1.23E-11,,
,6.296004,-1.23E-11,,
,6.298004,-1.22E-11,,
,6.300004,-1.17E-11,,
,6.302004,-1.13E-11,,
,6.304004,-1.08E-11,,
,6.306004,-1.11E-11,,
,6.308004,-1.20E-11,,
,6.310004,-1.36E-11,,
,6.312004,-1.45E-11,,
,6.314004,-1.55E-11,,
,6.316004,-1.58E-11,,
,6.318004,-1.57E-11,,
,6.320004,-1.54E-11,,
,6.322004,-1.54E-11,,
,6.324004,-1.58E-11,,
,6.326004,-1.60E-11,,
,6.328004,-1.62E-11,,
,6.330004,-1.62E-11,,
,6.332004,-1.60E-11,,
,6.334004,-1.57E-11,,
,6.336004,-1.55E-11,,
,6.338004,-1.60E-11,,
,6.340004,-1.69E-11,,
,6.342004,-1.80E-11,,
,6.344004,-1.88E-11,,
,6.346004,-1.92E-11,,
,6.348004,-1.96E-11,,
,6.350004,-1.96E-11,,
,6.352004,-1.96E-11,,
,6.354004,-1.96E-11,,
,6.356004,-1.97E-11,,
,6.358004,-1.99E-11,,
,6.360004,-2.00E-11,,
,6.362004,-2.00E-11,,
,6.364004,-1.97E-11,,
,6.366004,-1.91E-11,,
,6.368004,-1.87E-11,,
,6.370004,-1.87E-11,,
,6.372004,-1.91E-11,,
,6.374004,-2.00E-11,,
,6.376004,-2.11E-11,,
,6.378004,-2.19E-11,,
,6.380004,-2.25E-11,,
,6.382004,-2.24E-11,,
,6.384004,-2.20E-11,,
,6.386004,-2.17E-11,,
,6.388004,-2.17E-11,,
,6.390004,-2.21E-11,,
,6.392004,-2.28E-11,,
,6.394004,-2.34E-11,,
,6.396004,-2.39E-11,,
,6.398004,-2.36E-11,,
,6.400004,-2.34E-11,,
,6.402004,-2.31E-11,,
,6.404004,-2.31E-11,,
,6.406004,-2.35E-11,,
,6.408004,-2.43E-11,,
,6.410004,-2.53E-11,,
,6.412004,-2.58E-11,,
,6.414004,-2.60E-11,,
,6.416004,-2.59E-11,,
,6.418004,-2.56E-11,,
,6.420004,-2.53E-11,,
,6.422004,-2.53E-11,,
,6.424004,-2.55E-11,,
,6.426004,-2.57E-11,,
,6.428004,-2.56E-11,,
,6.430004,-2.53E-11,,
,6.432004,-2.47E-11,,
,6.434004,-2.41E-11,,
,6.436004,-2.34E-11,,
,6.438004,-2.32E-11,,
,6.440004,-2.35E-11,,
,6.442004,-2.42E-11,,
,6.444004,-2.49E-11,,
,6.446004,-2.53E-11,,
,6.448004,-2.55E-11,,
,6.450004,-2.53E-11,,
,6.452004,-2.49E-11,,
,6.454004,-2.42E-11,,
,6.456004,-2.38E-11,,
,6.458004,-2.35E-11,,
,6.460004,-2.35E-11,,
,6.462004,-2.31E-11,,
,6.464004,-2.22E-11,,
,6.466004,-2.14E-11,,
,6.468004,-2.07E-11,,
,6.470004,-2.04E-11,,
,6.472004,-2.07E-11,,
,6.474004,-2.17E-11,,
,6.476004,-2.29E-11,,
,6.478004,-2.34E-11,,
,6.480004,-2.35E-11,,
,6.482004,-2.31E-11,,
,6.484004,-2.26E-11,,
,6.486004,-2.14E-11,,
,6.488004,-2.06E-11,,
,6.490004,-2.02E-11,,
,6.492004,-2.03E-11,,
,6.494004,-2.03E-11,,
,6.496004,-1.99E-11,,
,6.498004,-1.95E-11,,
,6.500004,-1.89E-11,,
,6.502004,-1.83E-11,,
,6.504004,-1.76E-11,,
,6.506004,-1.75E-11,,
,6.508004,-1.81E-11,,
,6.510004,-1.87E-11,,
,6.512004,-1.88E-11,,
,6.514004,-1.87E-11,,
,6.516004,-1.83E-11,,
,6.518004,-1.77E-11,,
,6.520004,-1.70E-11,,
,6.522004,-1.66E-11,,
,6.524004,-1.67E-11,,
,6.526004,-1.68E-11,,
,6.528004,-1.66E-11,,
,6.530004,-1.57E-11,,
,6.532004,-1.49E-11,,
,6.534004,-1.42E-11,,
,6.536004,-1.38E-11,,
,6.538004,-1.37E-11,,
,6.540004,-1.41E-11,,
,6.542004,-1.49E-11,,
,6.544004,-1.56E-11,,
,6.546004,-1.57E-11,,
,6.548004,-1.55E-11,,
,6.550004,-1.49E-11,,
,6.552004,-1.43E-11,,
,6.554004,-1.36E-11,,
,6.556004,-1.32E-11,,
,6.558004,-1.31E-11,,
,6.560004,-1.32E-11,,
,6.562004,-1.30E-11,,
,6.564004,-1.28E-11,,
,6.566004,-1.23E-11,,
,6.568004,-1.19E-11,,
,6.570004,-1.15E-11,,
,6.572004,-1.16E-11,,
,6.574004,-1.18E-11,,
,6.576004,-1.29E-11,,
,6.578004,-1.36E-11,,
,6.580004,-1.41E-11,,
,6.582004,-1.37E-11,,
,6.584004,-1.31E-11,,
,6.586004,-1.25E-11,,
,6.588004,-1.23E-11,,
,6.590004,-1.22E-11,,
,6.592004,-1.23E-11,,
,6.594004,-1.24E-11,,
,6.596004,-1.22E-11,,
,6.598004,-1.16E-11,,
,6.600004,-1.07E-11,,
,6.602004,-1.02E-11,,
,6.604004,-1.01E-11,,
,6.606004,-1.05E-11,,
,6.608004,-1.12E-11,,
,6.610004,-1.18E-11,,
,6.612004,-1.22E-11,,
,6.614004,-1.20E-11,,
,6.616004,-1.15E-11,,
,6.618004,-1.11E-11,,
,6.620004,-1.04E-11,,
,6.622004,-1.01E-11,,
,6.624004,-9.90E-12,,
,6.626004,-1.01E-11,,
,6.628004,-9.90E-12,,
,6.630004,-9.37E-12,,
,6.632004,-8.83E-12,,
,6.634004,-8.51E-12,,
,6.636004,-8.40E-12,,
,6.638004,-8.29E-12,,
,6.640004,-8.72E-12,,
,6.642004,-9.47E-12,,
,6.644004,-1.02E-11,,
,6.646004,-1.08E-11,,
,6.648004,-1.09E-11,,
,6.650004,-1.04E-11,,
,6.652004,-9.79E-12,,
,6.654004,-9.15E-12,,
,6.656004,-9.04E-12,,
,6.658004,-9.04E-12,,
,6.660004,-9.26E-12,,
,6.662004,-9.47E-12,,
,6.664004,-9.37E-12,,
,6.666004,-8.83E-12,,
,6.668004,-8.40E-12,,
,6.670004,-8.29E-12,,
,6.672004,-8.72E-12,,
,6.674004,-9.26E-12,,
,6.676004,-9.69E-12,,
,6.678004,-1.01E-11,,
,6.680004,-1.01E-11,,
,6.682004,-1.01E-11,,
,6.684004,-9.79E-12,,
,6.686004,-9.37E-12,,
,6.688004,-8.94E-12,,
,6.690004,-8.94E-12,,
,6.692004,-9.37E-12,,
,6.694004,-9.79E-12,,
,6.696004,-9.79E-12,,
,6.698004,-9.58E-12,,
,6.700004,-9.15E-12,,
,6.702004,-8.83E-12,,
,6.704004,-8.61E-12,,
,6.706004,-8.72E-12,,
,6.708004,-9.26E-12,,
,6.710004,-9.58E-12,,
,6.712004,-1.00E-11,,
,6.714004,-9.79E-12,,
,6.716004,-9.69E-12,,
,6.718004,-9.26E-12,,
,6.720004,-8.61E-12,,
,6.722004,-8.18E-12,,
,6.724004,-7.97E-12,,
,6.726004,-8.08E-12,,
,6.728004,-7.86E-12,,
,6.730004,-7.65E-12,,
,6.732004,-7.33E-12,,
,6.734004,-7.00E-12,,
,6.736004,-6.57E-12,,
,6.738004,-6.47E-12,,
,6.740004,-6.79E-12,,
,6.742004,-7.33E-12,,
,6.744004,-7.86E-12,,
,6.746004,-7.75E-12,,
,6.748004,-7.33E-12,,
,6.750004,-6.68E-12,,
,6.752004,-6.04E-12,,
,6.754004,-5.39E-12,,
,6.756004,-5.18E-12,,
,6.758004,-5.18E-12,,
,6.760004,-5.39E-12,,
,6.762004,-5.29E-12,,
,6.764004,-5.29E-12,,
,6.766004,-4.75E-12,,
,6.768004,-3.89E-12,,
,6.770004,-3.14E-12,,
,6.772004,-2.92E-12,,
,6.774004,-3.25E-12,,
,6.776004,-3.46E-12,,
,6.778004,-3.57E-12,,
,6.780004,-3.46E-12,,
,6.782004,-3.14E-12,,
,6.784004,-2.60E-12,,
,6.786004,-2.17E-12,,
,6.788004,-1.85E-12,,
,6.790004,-2.07E-12,,
,6.792004,-2.07E-12,,
,6.794004,-2.17E-12,,
,6.796004,-1.96E-12,,
,6.798004,-1.42E-12,,
,6.800004,-7.77E-13,,
,6.802004,-1.33E-13,,
,6.804004,-1.33E-13,,
,6.806004,-5.62E-13,,
,6.808004,-1.53E-12,,
,6.810004,-2.71E-12,,
,6.812004,-3.57E-12,,
,6.814004,-3.89E-12,,
,6.816004,-3.78E-12,,
,6.818004,-3.35E-12,,
,6.820004,-2.71E-12,,
,6.822004,-2.07E-12,,
,6.824004,-1.74E-12,,
,6.826004,-1.85E-12,,
,6.828004,-1.96E-12,,
,6.830004,-2.17E-12,,
,6.832004,-1.96E-12,,
,6.834004,-1.74E-12,,
,6.836004,-1.64E-12,,
,6.838004,-2.07E-12,,
,6.840004,-2.82E-12,,
,6.842004,-3.57E-12,,
,6.844004,-4.75E-12,,
,6.846004,-5.50E-12,,
,6.848004,-5.61E-12,,
,6.850004,-5.39E-12,,
,6.852004,-5.07E-12,,
,6.854004,-5.29E-12,,
,6.856004,-5.39E-12,,
,6.858004,-6.04E-12,,
,6.860004,-6.79E-12,,
,6.862004,-7.33E-12,,
,6.864004,-7.54E-12,,
,6.866004,-7.43E-12,,
,6.868004,-7.33E-12,,
,6.870004,-7.43E-12,,
,6.872004,-7.97E-12,,
,6.874004,-9.04E-12,,
,6.876004,-1.01E-11,,
,6.878004,-1.12E-11,,
,6.880004,-1.16E-11,,
,6.882004,-1.18E-11,,
,6.884004,-1.14E-11,,
,6.886004,-1.10E-11,,
,6.888004,-1.07E-11,,
,6.890004,-1.09E-11,,
,6.892004,-1.12E-11,,
,6.894004,-1.15E-11,,
,6.896004,-1.16E-11,,
,6.898004,-1.14E-11,,
,6.900004,-1.11E-11,,
,6.902004,-1.08E-11,,
,6.904004,-1.08E-11,,
,6.906004,-1.13E-11,,
,6.908004,-1.18E-11,,
,6.910004,-1.26E-11,,
,6.912004,-1.27E-11,,
,6.914004,-1.26E-11,,
,6.916004,-1.20E-11,,
,6.918004,-1.14E-11,,
,6.920004,-1.08E-11,,
,6.922004,-1.03E-11,,
,6.924004,-1.07E-11,,
,6.926004,-1.09E-11,,
,6.928004,-1.11E-11,,
,6.930004,-1.04E-11,,
,6.932004,-9.79E-12,,
,6.934004,-8.94E-12,,
,6.936004,-8.29E-12,,
,6.938004,-8.18E-12,,
,6.940004,-8.29E-12,,
,6.942004,-8.83E-12,,
,6.944004,-9.26E-12,,
,6.946004,-9.69E-12,,
,6.948004,-9.69E-12,,
,6.950004,-9.15E-12,,
,6.952004,-8.40E-12,,
,6.954004,-7.43E-12,,
,6.956004,-7.00E-12,,
,6.958004,-6.68E-12,,
,6.960004,-6.68E-12,,
,6.962004,-6.25E-12,,
,6.964004,-5.61E-12,,
,6.966004,-4.75E-12,,
,6.968004,-4.00E-12,,
,6.970004,-3.78E-12,,
,6.972004,-4.10E-12,,
,6.974004,-5.07E-12,,
,6.976004,-5.93E-12,,
,6.978004,-6.68E-12,,
,6.980004,-6.90E-12,,
,6.982004,-6.79E-12,,
,6.984004,-5.93E-12,,
,6.986004,-4.96E-12,,
,6.988004,-4.21E-12,,
,6.990004,-4.21E-12,,
,6.992004,-4.43E-12,,
,6.994004,-4.75E-12,,
,6.996004,-4.53E-12,,
,6.998004,-4.21E-12,,
,7.000004,-3.68E-12,,
,7.002004,-3.57E-12,,
,7.004004,-3.46E-12,,
,7.006004,-3.89E-12,,
,7.008004,-4.64E-12,,
,7.010004,-5.50E-12,,
,7.012004,-5.82E-12,,
,7.014004,-5.61E-12,,
,7.016004,-5.29E-12,,
,7.018004,-4.96E-12,,
,7.020004,-4.64E-12,,
,7.022004,-4.64E-12,,
,7.024004,-4.86E-12,,
,7.026004,-4.96E-12,,
,7.028004,-5.07E-12,,
,7.030004,-4.86E-12,,
,7.032004,-4.75E-12,,
,7.034004,-4.10E-12,,
,7.036004,-3.89E-12,,
,7.038004,-3.89E-12,,
,7.040004,-4.86E-12,,
,7.042004,-5.93E-12,,
,7.044004,-7.11E-12,,
,7.046004,-7.65E-12,,
,7.048004,-7.65E-12,,
,7.050004,-7.43E-12,,
,7.052004,-6.90E-12,,
,7.054004,-6.47E-12,,
,7.056004,-6.25E-12,,
,7.058004,-6.57E-12,,
,7.060004,-7.00E-12,,
,7.062004,-7.33E-12,,
,7.064004,-7.43E-12,,
,7.066004,-7.43E-12,,
,7.068004,-7.54E-12,,
,7.070004,-7.97E-12,,
,7.072004,-8.72E-12,,
,7.074004,-9.58E-12,,
,7.076004,-1.02E-11,,
,7.078004,-1.07E-11,,
,7.080004,-1.10E-11,,
,7.082004,-1.10E-11,,
,7.084004,-1.08E-11,,
,7.086004,-1.03E-11,,
,7.088004,-1.00E-11,,
,7.090004,-1.03E-11,,
,7.092004,-1.11E-11,,
,7.094004,-1.19E-11,,
,7.096004,-1.26E-11,,
,7.098004,-1.28E-11,,
,7.100004,-1.27E-11,,
,7.102004,-1.26E-11,,
,7.104004,-1.25E-11,,
,7.106004,-1.29E-11,,
,7.108004,-1.32E-11,,
,7.110004,-1.37E-11,,
,7.112004,-1.41E-11,,
,7.114004,-1.45E-11,,
,7.116004,-1.46E-11,,
,7.118004,-1.46E-11,,
,7.120004,-1.45E-11,,
,7.122004,-1.48E-11,,
,7.124004,-1.53E-11,,
,7.126004,-1.59E-11,,
,7.128004,-1.63E-11,,
,7.130004,-1.65E-11,,
,7.132004,-1.61E-11,,
,7.134004,-1.54E-11,,
,7.136004,-1.46E-11,,
,7.138004,-1.43E-11,,
,7.140004,-1.44E-11,,
,7.142004,-1.51E-11,,
,7.144004,-1.55E-11,,
,7.146004,-1.57E-11,,
,7.148004,-1.55E-11,,
,7.150004,-1.52E-11,,
,7.152004,-1.48E-11,,
,7.154004,-1.45E-11,,
,7.156004,-1.46E-11,,
,7.158004,-1.53E-11,,
,7.160004,-1.59E-11,,
,7.162004,-1.60E-11,,
,7.164004,-1.57E-11,,
,7.166004,-1.52E-11,,
,7.168004,-1.45E-11,,
,7.170004,-1.40E-11,,
,7.172004,-1.42E-11,,
,7.174004,-1.51E-11,,
,7.176004,-1.62E-11,,
,7.178004,-1.69E-11,,
,7.180004,-1.74E-11,,
,7.182004,-1.76E-11,,
,7.184004,-1.75E-11,,
,7.186004,-1.73E-11,,
,7.188004,-1.73E-11,,
,7.190004,-1.78E-11,,
,7.192004,-1.87E-11,,
,7.194004,-1.95E-11,,
,7.196004,-1.98E-11,,
,7.198004,-1.98E-11,,
,7.200004,-1.93E-11,,
,7.202004,-1.90E-11,,
,7.204004,-1.87E-11,,
,7.206004,-1.91E-11,,
,7.208004,-2.01E-11,,
,7.210004,-2.12E-11,,
,7.212004,-2.19E-11,,
,7.214004,-2.21E-11,,
,7.216004,-2.22E-11,,
,7.218004,-2.21E-11,,
,7.220004,-2.22E-11,,
,7.222004,-2.26E-11,,
,7.224004,-2.32E-11,,
,7.226004,-2.39E-11,,
,7.228004,-2.41E-11,,
,7.230004,-2.42E-11,,
,7.232004,-2.39E-11,,
,7.234004,-2.35E-11,,
,7.236004,-2.30E-11,,
,7.238004,-2.30E-11,,
,7.240004,-2.34E-11,,
,7.242004,-2.43E-11,,
,7.244004,-2.51E-11,,
,7.246004,-2.60E-11,,
,7.248004,-2.62E-11,,
,7.250004,-2.62E-11,,
,7.252004,-2.57E-11,,
,7.254004,-2.55E-11,,
,7.256004,-2.56E-11,,
,7.258004,-2.60E-11,,
,7.260004,-2.63E-11,,
,7.262004,-2.63E-11,,
,7.264004,-2.57E-11,,
,7.266004,-2.49E-11,,
,7.268004,-2.40E-11,,
,7.270004,-2.35E-11,,
,7.272004,-2.33E-11,,
,7.274004,-2.38E-11,,
,7.276004,-2.43E-11,,
,7.278004,-2.51E-11,,
,7.280004,-2.55E-11,,
,7.282004,-2.54E-11,,
,7.284004,-2.48E-11,,
,7.286004,-2.43E-11,,
,7.288004,-2.40E-11,,
,7.290004,-2.38E-11,,
,7.292004,-2.38E-11,,
,7.294004,-2.38E-11,,
,7.296004,-2.32E-11,,
,7.298004,-2.25E-11,,
,7.300004,-2.16E-11,,
,7.302004,-2.11E-11,,
,7.304004,-2.05E-11,,
,7.306004,-2.03E-11,,
,7.308004,-2.09E-11,,
,7.310004,-2.15E-11,,
,7.312004,-2.20E-11,,
,7.314004,-2.22E-11,,
,7.316004,-2.21E-11,,
,7.318004,-2.17E-11,,
,7.320004,-2.09E-11,,
,7.322004,-2.04E-11,,
,7.324004,-2.02E-11,,
,7.326004,-2.05E-11,,
,7.328004,-2.06E-11,,
,7.330004,-2.05E-11,,
,7.332004,-1.99E-11,,
,7.334004,-1.88E-11,,
,7.336004,-1.81E-11,,
,7.338004,-1.75E-11,,
,7.340004,-1.77E-11,,
,7.342004,-1.83E-11,,
,7.344004,-1.91E-11,,
,7.346004,-1.95E-11,,
,7.348004,-1.93E-11,,
,7.350004,-1.88E-11,,
,7.352004,-1.82E-11,,
,7.354004,-1.78E-11,,
,7.356004,-1.76E-11,,
,7.358004,-1.78E-11,,
,7.360004,-1.80E-11,,
,7.362004,-1.78E-11,,
,7.364004,-1.75E-11,,
,7.366004,-1.68E-11,,
,7.368004,-1.59E-11,,
,7.370004,-1.53E-11,,
,7.372004,-1.51E-11,,
,7.374004,-1.55E-11,,
,7.376004,-1.60E-11,,
,7.378004,-1.69E-11,,
,7.380004,-1.71E-11,,
,7.382004,-1.71E-11,,
,7.384004,-1.66E-11,,
,7.386004,-1.63E-11,,
,7.388004,-1.60E-11,,
,7.390004,-1.62E-11,,
,7.392004,-1.63E-11,,
,7.394004,-1.63E-11,,
,7.396004,-1.58E-11,,
,7.398004,-1.52E-11,,
,7.400004,-1.44E-11,,
,7.402004,-1.36E-11,,
,7.404004,-1.29E-11,,
,7.406004,-1.30E-11,,
,7.408004,-1.36E-11,,
,7.410004,-1.44E-11,,
,7.412004,-1.51E-11,,
,7.414004,-1.54E-11,,
,7.416004,-1.52E-11,,
,7.418004,-1.46E-11,,
,7.420004,-1.42E-11,,
,7.422004,-1.38E-11,,
,7.424004,-1.37E-11,,
,7.426004,-1.34E-11,,
,7.428004,-1.33E-11,,
,7.430004,-1.26E-11,,
,7.432004,-1.17E-11,,
,7.434004,-1.08E-11,,
,7.436004,-1.01E-11,,
,7.438004,-1.00E-11,,
,7.440004,-1.04E-11,,
,7.442004,-1.14E-11,,
,7.444004,-1.23E-11,,
,7.446004,-1.27E-11,,
,7.448004,-1.27E-11,,
,7.450004,-1.22E-11,,
,7.452004,-1.13E-11,,
,7.454004,-1.05E-11,,
,7.456004,-1.01E-11,,
,7.458004,-1.03E-11,,
,7.460004,-1.03E-11,,
,7.462004,-1.02E-11,,
,7.464004,-9.79E-12,,
,7.466004,-9.37E-12,,
,7.468004,-8.83E-12,,
,7.470004,-8.29E-12,,
,7.472004,-8.29E-12,,
,7.474004,-8.72E-12,,
,7.476004,-9.47E-12,,
,7.478004,-1.01E-11,,
,7.480004,-1.03E-11,,
,7.482004,-1.04E-11,,
,7.484004,-1.00E-11,,
,7.486004,-1.00E-11,,
,7.488004,-9.69E-12,,
,7.490004,-9.90E-12,,
,7.492004,-1.00E-11,,
,7.494004,-1.02E-11,,
,7.496004,-1.03E-11,,
,7.498004,-9.90E-12,,
,7.500004,-9.37E-12,,
,7.502004,-8.51E-12,,
,7.504004,-8.40E-12,,
,7.506004,-8.94E-12,,
,7.508004,-9.90E-12,,
,7.510004,-1.10E-11,,
,7.512004,-1.18E-11,,
,7.514004,-1.22E-11,,
,7.516004,-1.19E-11,,
,7.518004,-1.13E-11,,
,7.520004,-1.09E-11,,
,7.522004,-1.08E-11,,
,7.524004,-1.11E-11,,
,7.526004,-1.12E-11,,
,7.528004,-1.11E-11,,
,7.530004,-1.08E-11,,
,7.532004,-1.04E-11,,
,7.534004,-1.00E-11,,
,7.536004,-9.37E-12,,
,7.538004,-9.37E-12,,
,7.540004,-9.69E-12,,
,7.542004,-1.04E-11,,
,7.544004,-1.10E-11,,
,7.546004,-1.14E-11,,
,7.548004,-1.15E-11,,
,7.550004,-1.14E-11,,
,7.552004,-1.08E-11,,
,7.554004,-1.03E-11,,
,7.556004,-1.00E-11,,
,7.558004,-1.02E-11,,
,7.560004,-1.02E-11,,
,7.562004,-1.00E-11,,
,7.564004,-9.58E-12,,
,7.566004,-8.94E-12,,
,7.568004,-8.08E-12,,
,7.570004,-7.22E-12,,
,7.572004,-6.90E-12,,
,7.574004,-7.33E-12,,
,7.576004,-8.08E-12,,
,7.578004,-8.72E-12,,
,7.580004,-8.61E-12,,
,7.582004,-8.29E-12,,
,7.584004,-7.65E-12,,
,7.586004,-7.11E-12,,
,7.588004,-6.68E-12,,
,7.590004,-6.57E-12,,
,7.592004,-7.00E-12,,
,7.594004,-7.11E-12,,
,7.596004,-7.11E-12,,
,7.598004,-6.68E-12,,
,7.600004,-6.04E-12,,
,7.602004,-5.50E-12,,
,7.604004,-4.96E-12,,
,7.606004,-5.18E-12,,
,7.608004,-5.61E-12,,
,7.610004,-6.25E-12,,
,7.612004,-6.68E-12,,
,7.614004,-6.79E-12,,
,7.616004,-6.79E-12,,
,7.618004,-6.57E-12,,
,7.620004,-6.14E-12,,
,7.622004,-6.14E-12,,
,7.624004,-6.47E-12,,
,7.626004,-7.22E-12,,
,7.628004,-7.65E-12,,
,7.630004,-7.54E-12,,
,7.632004,-7.00E-12,,
,7.634004,-6.36E-12,,
,7.636004,-5.93E-12,,
,7.638004,-5.93E-12,,
,7.640004,-6.47E-12,,
,7.642004,-7.33E-12,,
,7.644004,-8.18E-12,,
,7.646004,-8.72E-12,,
,7.648004,-9.04E-12,,
,7.650004,-9.04E-12,,
,7.652004,-9.15E-12,,
,7.654004,-9.15E-12,,
,7.656004,-9.69E-12,,
,7.658004,-1.02E-11,,
,7.660004,-1.13E-11,,
,7.662004,-1.18E-11,,
,7.664004,-1.20E-11,,
,7.666004,-1.17E-11,,
,7.668004,-1.15E-11,,
,7.670004,-1.12E-11,,
,7.672004,-1.15E-11,,
,7.674004,-1.22E-11,,
,7.676004,-1.33E-11,,
,7.678004,-1.44E-11,,
,7.680004,-1.54E-11,,
,7.682004,-1.63E-11,,
,7.684004,-1.69E-11,,
,7.686004,-1.73E-11,,
,7.688004,-1.76E-11,,
,7.690004,-1.78E-11,,
,7.692004,-1.83E-11,,
,7.694004,-1.85E-11,,
,7.696004,-1.87E-11,,
,7.698004,-1.85E-11,,
,7.700004,-1.80E-11,,
,7.702004,-1.75E-11,,
,7.704004,-1.75E-11,,
,7.706004,-1.82E-11,,
,7.708004,-1.90E-11,,
,7.710004,-1.97E-11,,
,7.712004,-2.01E-11,,
,7.714004,-2.00E-11,,
,7.716004,-1.96E-11,,
,7.718004,-1.86E-11,,
,7.720004,-1.76E-11,,
,7.722004,-1.70E-11,,
,7.724004,-1.66E-11,,
,7.726004,-1.63E-11,,
,7.728004,-1.56E-11,,
,7.730004,-1.47E-11,,
,7.732004,-1.34E-11,,
,7.734004,-1.20E-11,,
,7.736004,-1.05E-11,,
,7.738004,-9.37E-12,,
,7.740004,-8.72E-12,,
,7.742004,-8.51E-12,,
,7.744004,-8.18E-12,,
,7.746004,-7.86E-12,,
,7.748004,-7.22E-12,,
,7.750004,-6.68E-12,,
,7.752004,-5.93E-12,,
,7.754004,-5.50E-12,,
,7.756004,-5.18E-12,,
,7.758004,-5.18E-12,,
,7.760004,-4.96E-12,,
,7.762004,-5.07E-12,,
,7.764004,-4.75E-12,,
,7.766004,-4.86E-12,,
,7.768004,-4.75E-12,,
,7.770004,-5.39E-12,,
,7.772004,-6.36E-12,,
,7.774004,-8.18E-12,,
,7.776004,-1.00E-11,,
,7.778004,-1.17E-11,,
,7.780004,-1.28E-11,,
,7.782004,-1.37E-11,,
,7.784004,-1.41E-11,,
,7.786004,-1.43E-11,,
,7.788004,-1.44E-11,,
,7.790004,-1.47E-11,,
,7.792004,-1.53E-11,,
,7.794004,-1.53E-11,,
,7.796004,-1.46E-11,,
,7.798004,-1.29E-11,,
,7.800004,-1.07E-11,,
,7.802004,-7.86E-12,,
,7.804004,-5.07E-12,,
,7.806004,-2.39E-12,,
,7.808004,1.89E-13,,
,7.810004,3.09E-12,,
,7.812004,6.20E-12,,
,7.814004,1.01E-11,,
,7.816004,1.41E-11,,
,7.818004,1.87E-11,,
,7.820004,2.32E-11,,
,7.822004,2.80E-11,,
,7.824004,3.27E-11,,
,7.826004,3.73E-11,,
,7.828004,4.21E-11,,
,7.830004,4.70E-11,,
,7.832004,5.20E-11,,
,7.834004,5.72E-11,,
,7.836004,6.21E-11,,
,7.838004,6.69E-11,,
,7.840004,7.07E-11,,
,7.842004,7.46E-11,,
,7.844004,7.81E-11,,
,7.846004,8.19E-11,,
,7.848004,8.56E-11,,
,7.850004,8.97E-11,,
,7.852004,9.36E-11,,
,7.854004,9.70E-11,,
,7.856004,1.00E-10,,
,7.858004,1.03E-10,,
,7.860004,1.06E-10,,
,7.862004,1.09E-10,,
,7.864004,1.11E-10,,
,7.866004,1.13E-10,,
,7.868004,1.15E-10,,
,7.870004,1.16E-10,,
,7.872004,1.15E-10,,
,7.874004,1.13E-10,,
,7.876004,1.11E-10,,
,7.878004,1.08E-10,,
,7.880004,1.06E-10,,
,7.882004,1.04E-10,,
,7.884004,1.02E-10,,
,7.886004,1.01E-10,,
,7.888004,9.99E-11,,
,7.890004,9.90E-11,,
,7.892004,9.84E-11,,
,7.894004,9.85E-11,,
,7.896004,9.92E-11,,
,7.898004,1.00E-10,,
,7.900004,1.02E-10,,
,7.902004,1.04E-10,,
,7.904004,1.06E-10,,
,7.906004,1.08E-10,,
,7.908004,1.10E-10,,
,7.910004,1.11E-10,,
,7.912004,1.13E-10,,
,7.914004,1.15E-10,,
,7.916004,1.18E-10,,
,7.918004,1.20E-10,,
,7.920004,1.23E-10,,
,7.922004,1.25E-10,,
,7.924004,1.27E-10,,
,7.926004,1.28E-10,,
,7.928004,1.29E-10,,
,7.930004,1.31E-10,,
,7.932004,1.31E-10,,
,7.934004,1.32E-10,,
,7.936004,1.32E-10,,
,7.938004,1.31E-10,,
,7.940004,1.29E-10,,
,7.942004,1.27E-10,,
,7.944004,1.24E-10,,
,7.946004,1.20E-10,,
,7.948004,1.15E-10,,
,7.950004,1.09E-10,,
,7.952004,1.02E-10,,
,7.954004,9.47E-11,,
,7.956004,8.54E-11,,
,7.958004,7.45E-11,,
,7.960004,6.22E-11,,
,7.962004,4.88E-11,,
,7.964004,3.40E-11,,
,7.966004,1.75E-11,,
,7.968004,-9.92E-13,,
,7.970004,-2.20E-11,,
,7.972004,-4.61E-11,,
,7.974004,-7.33E-11,,
,7.976004,-1.04E-10,,
,7.978004,-1.36E-10,,
,7.980004,-1.71E-10,,
,7.982004,-2.08E-10,,
,7.984004,-2.47E-10,,
,7.986004,-2.89E-10,,
,7.988004,-3.32E-10,,
,7.990004,-3.78E-10,,
,7.992004,-4.26E-10,,
,7.994004,-4.75E-10,,
,7.996004,-5.26E-10,,
,7.998004,-5.78E-10,,
,8.000004,-6.31E-10,,
,8.002004,-6.85E-10,,
,8.004004,-7.39E-10,,
,8.006004,-7.95E-10,,
,8.008004,-8.51E-10,,
,8.010004,-9.07E-10,,
,8.012004,-9.63E-10,,
,8.014004,-1.02E-09,,
,8.016004,-1.07E-09,,
,8.018004,-1.13E-09,,
,8.020004,-1.18E-09,,
,8.022004,-1.23E-09,,
,8.024004,-1.28E-09,,
,8.026004,-1.33E-09,,
,8.028004,-1.38E-09,,
,8.030004,-1.43E-09,,
,8.032004,-1.48E-09,,
,8.034004,-1.52E-09,,
,8.036004,-1.56E-09,,
,8.038004,-1.61E-09,,
,8.040004,-1.65E-09,,
,8.042004,-1.69E-09,,
,8.044004,-1.72E-09,,
,8.046004,-1.76E-09,,
,8.048004,-1.79E-09,,
,8.050004,-1.83E-09,,
,8.052004,-1.86E-09,,
,8.054004,-1.88E-09,,
,8.056004,-1.91E-09,,
,8.058004,-1.94E-09,,
,8.060004,-1.96E-09,,
,8.062004,-1.98E-09,,
,8.064004,-2.00E-09,,
,8.066004,-2.02E-09,,
,8.068004,-2.04E-09,,
,8.070004,-2.05E-09,,
,8.072004,-2.06E-09,,
,8.074004,-2.07E-09,,
,8.076004,-2.08E-09,,
,8.078004,-2.09E-09,,
,8.080004,-2.10E-09,,
,8.082004,-2.10E-09,,
,8.084004,-2.10E-09,,
,8.086004,-2.10E-09,,
,8.088004,-2.10E-09,,
,8.090004,-2.10E-09,,
,8.092004,-2.09E-09,,
,8.094004,-2.09E-09,,
,8.096004,-2.08E-09,,
,8.098004,-2.07E-09,,
,8.100004,-2.06E-09,,
,8.102004,-2.05E-09,,
,8.104004,-2.03E-09,,
,8.106004,-2.02E-09,,
,8.108004,-2.00E-09,,
,8.110004,-1.98E-09,,
,8.112004,-1.96E-09,,
,8.114004,-1.94E-09,,
,8.116004,-1.92E-09,,
,8.118004,-1.90E-09,,
,8.120004,-1.88E-09,,
,8.122004,-1.85E-09,,
,8.124004,-1.83E-09,,
,8.126004,-1.80E-09,,
,8.128004,-1.78E-09,,
,8.130004,-1.75E-09,,
,8.132004,-1.72E-09,,
,8.134004,-1.70E-09,,
,8.136004,-1.67E-09,,
,8.138004,-1.64E-09,,
,8.140004,-1.62E-09,,
,8.142004,-1.59E-09,,
,8.144004,-1.57E-09,,
,8.146004,-1.54E-09,,
,8.148004,-1.52E-09,,
,8.150004,-1.49E-09,,
,8.152004,-1.47E-09,,
,8.154004,-1.45E-09,,
,8.156004,-1.42E-09,,
,8.158004,-1.40E-09,,
,8.160004,-1.38E-09,,
,8.162004,-1.37E-09,,
,8.164004,-1.35E-09,,
,8.166004,-1.33E-09,,
,8.168004,-1.32E-09,,
,8.170004,-1.30E-09,,
,8.172004,-1.29E-09,,
,8.174004,-1.28E-09,,
,8.176004,-1.27E-09,,
,8.178004,-1.25E-09,,
,8.180004,-1.23E-09,,
,8.182004,-1.22E-09,,
,8.184004,-1.20E-09,,
,8.186004,-1.18E-09,,
,8.188004,-1.17E-09,,
,8.190004,-1.15E-09,,
,8.192004,-1.14E-09,,
,8.194004,-1.12E-09,,
,8.196004,-1.11E-09,,
,8.198004,-1.10E-09,,
,8.200004,-1.09E-09,,
,8.202004,-1.07E-09,,
,8.204004,-1.06E-09,,
,8.206004,-1.06E-09,,
,8.208004,-1.05E-09,,
,8.210004,-1.04E-09,,
,8.212004,-1.03E-09,,
,8.214004,-1.03E-09,,
,8.216004,-1.02E-09,,
,8.218004,-1.02E-09,,
,8.220004,-1.02E-09,,
,8.222004,-1.01E-09,,
,8.224004,-1.01E-09,,
,8.226004,-1.01E-09,,
,8.228004,-1.01E-09,,
,8.230004,-1.01E-09,,
,8.232004,-1.01E-09,,
,8.234004,-1.00E-09,,
,8.236004,-1.00E-09,,
,8.238004,-1.00E-09,,
,8.240004,-1.00E-09,,
,8.242004,-1.00E-09,,
,8.244004,-1.00E-09,,
,8.246004,-1.00E-09,,
,8.248004,-1.00E-09,,
,8.250004,-1.00E-09,,
,8.252004,-1.00E-09,,
,8.254004,-1.00E-09,,
,8.256004,-1.00E-09,,
,8.258004,-1.00E-09,,
,8.260004,-1.00E-09,,
,8.262004,-1.00E-09,,
,8.264004,-9.98E-10,,
,8.266004,-9.96E-10,,
,8.268004,-9.93E-10,,
,8.270004,-9.90E-10,,
,8.272004,-9.87E-10,,
,8.274004,-9.83E-10,,
,8.276004,-9.79E-10,,
,8.278004,-9.74E-10,,
,8.280004,-9.69E-10,,
,8.282004,-9.64E-10,,
,8.284004,-9.57E-10,,
,8.286004,-9.50E-10,,
,8.288004,-9.42E-10,,
,8.290004,-9.34E-10,,
,8.292004,-9.24E-10,,
,8.294004,-9.14E-10,,
,8.296004,-9.03E-10,,
,8.298004,-8.90E-10,,
,8.300004,-8.77E-10,,
,8.302004,-8.63E-10,,
,8.304004,-8.49E-10,,
,8.306004,-8.34E-10,,
,8.308004,-8.19E-10,,
,8.310004,-8.04E-10,,
,8.312004,-7.87E-10,,
,8.314004,-7.70E-10,,
,8.316004,-7.52E-10,,
,8.318004,-7.34E-10,,
,8.320004,-7.16E-10,,
,8.322004,-6.98E-10,,
,8.324004,-6.79E-10,,
,8.326004,-6.60E-10,,
,8.328004,-6.41E-10,,
,8.330004,-6.20E-10,,
,8.332004,-6.00E-10,,
,8.334004,-5.79E-10,,
,8.336004,-5.58E-10,,
,8.338004,-5.36E-10,,
,8.340004,-5.15E-10,,
,8.342004,-4.95E-10,,
,8.344004,-4.74E-10,,
,8.346004,-4.54E-10,,
,8.348004,-4.33E-10,,
,8.350004,-4.13E-10,,
,8.352004,-3.93E-10,,
,8.354004,-3.72E-10,,
,8.356004,-3.52E-10,,
,8.358004,-3.33E-10,,
,8.360004,-3.13E-10,,
,8.362004,-2.93E-10,,
,8.364004,-2.73E-10,,
,8.366004,-2.54E-10,,
,8.368004,-2.34E-10,,
,8.370004,-2.16E-10,,
,8.372004,-1.99E-10,,
,8.374004,-1.82E-10,,
,8.376004,-1.67E-10,,
,8.378004,-1.52E-10,,
,8.380004,-1.37E-10,,
,8.382004,-1.23E-10,,
,8.384004,-1.10E-10,,
,8.386004,-9.66E-11,,
,8.388004,-8.42E-11,,
,8.390004,-7.25E-11,,
,8.392004,-6.16E-11,,
,8.394004,-5.11E-11,,
,8.396004,-4.10E-11,,
,8.398004,-3.12E-11,,
,8.400004,-2.19E-11,,
,8.402004,-1.30E-11,,
,8.404004,-4.86E-12,,
,8.406004,2.23E-12,,
,8.408004,8.24E-12,,
,8.410004,1.34E-11,,
,8.412004,1.81E-11,,
,8.414004,2.27E-11,,
,8.416004,2.71E-11,,
,8.418004,3.13E-11,,
,8.420004,3.52E-11,,
,8.422004,3.86E-11,,
,8.424004,4.20E-11,,
,8.426004,4.48E-11,,
,8.428004,4.80E-11,,
,8.430004,5.10E-11,,
,8.432004,5.43E-11,,
,8.434004,5.75E-11,,
,8.436004,6.05E-11,,
,8.438004,6.32E-11,,
,8.440004,6.54E-11,,
,8.442004,6.72E-11,,
,8.444004,6.90E-11,,
,8.446004,7.10E-11,,
,8.448004,7.34E-11,,
,8.450004,7.61E-11,,
,8.452004,7.92E-11,,
,8.454004,8.24E-11,,
,8.456004,8.58E-11,,
,8.458004,8.90E-11,,
,8.460004,9.26E-11,,
,8.462004,9.67E-11,,
,8.464004,1.02E-10,,
,8.466004,1.07E-10,,
,8.468004,1.12E-10,,
,8.470004,1.18E-10,,
,8.472004,1.24E-10,,
,8.474004,1.30E-10,,
,8.476004,1.36E-10,,
,8.478004,1.42E-10,,
,8.480004,1.49E-10,,
,8.482004,1.56E-10,,
,8.484004,1.63E-10,,
,8.486004,1.71E-10,,
,8.488004,1.79E-10,,
,8.490004,1.87E-10,,
,8.492004,1.96E-10,,
,8.494004,2.05E-10,,
,8.496004,2.15E-10,,
,8.498004,2.26E-10,,
,8.500004,2.37E-10,,
,8.502004,2.48E-10,,
,8.504004,2.60E-10,,
,8.506004,2.72E-10,,
,8.508004,2.83E-10,,
,8.510004,2.94E-10,,
,8.512004,3.06E-10,,
,8.514004,3.19E-10,,
,8.516004,3.32E-10,,
,8.518004,3.45E-10,,
,8.520004,3.59E-10,,
,8.522004,3.74E-10,,
,8.524004,3.88E-10,,
,8.526004,4.03E-10,,
,8.528004,4.19E-10,,
,8.530004,4.35E-10,,
,8.532004,4.52E-10,,
,8.534004,4.69E-10,,
,8.536004,4.86E-10,,
,8.538004,5.03E-10,,
,8.540004,5.20E-10,,
,8.542004,5.37E-10,,
,8.544004,5.54E-10,,
,8.546004,5.71E-10,,
,8.548004,5.89E-10,,
,8.550004,6.07E-10,,
,8.552004,6.25E-10,,
,8.554004,6.45E-10,,
,8.556004,6.64E-10,,
,8.558004,6.84E-10,,
,8.560004,7.04E-10,,
,8.562004,7.25E-10,,
,8.564004,7.46E-10,,
,8.566004,7.68E-10,,
,8.568004,7.89E-10,,
,8.570004,8.11E-10,,
,8.572004,8.33E-10,,
,8.574004,8.55E-10,,
,8.576004,8.76E-10,,
,8.578004,8.98E-10,,
,8.580004,9.20E-10,,
,8.582004,9.43E-10,,
,8.584004,9.67E-10,,
,8.586004,9.90E-10,,
,8.588004,1.01E-09,,
,8.590004,1.04E-09,,
,8.592004,1.06E-09,,
,8.594004,1.09E-09,,
,8.596004,1.11E-09,,
,8.598004,1.14E-09,,
,8.600004,1.16E-09,,
,8.602004,1.19E-09,,
,8.604004,1.21E-09,,
,8.606004,1.24E-09,,
,8.608004,1.26E-09,,
,8.610004,1.29E-09,,
,8.612004,1.31E-09,,
,8.614004,1.34E-09,,
,8.616004,1.37E-09,,
,8.618004,1.39E-09,,
,8.620004,1.42E-09,,
,8.622004,1.44E-09,,
,8.624004,1.46E-09,,
,8.626004,1.49E-09,,
,8.628004,1.51E-09,,
,8.630004,1.53E-09,,
,8.632004,1.55E-09,,
,8.634004,1.57E-09,,
,8.636004,1.59E-09,,
,8.638004,1.61E-09,,
,8.640004,1.63E-09,,
,8.642004,1.65E-09,,
,8.644004,1.66E-09,,
,8.646004,1.68E-09,,
,8.648004,1.69E-09,,
,8.650004,1.71E-09,,
,8.652004,1.72E-09,,
,8.654004,1.73E-09,,
,8.656004,1.74E-09,,
,8.658004,1.74E-09,,
,8.660004,1.75E-09,,
,8.662004,1.75E-09,,
,8.664004,1.76E-09,,
,8.666004,1.76E-09,,
,8.668004,1.76E-09,,
,8.670004,1.76E-09,,
,8.672004,1.76E-09,,
,8.674004,1.75E-09,,
,8.676004,1.74E-09,,
,8.678004,1.73E-09,,
,8.680004,1.72E-09,,
,8.682004,1.71E-09,,
,8.684004,1.70E-09,,
,8.686004,1.68E-09,,
,8.688004,1.66E-09,,
,8.690004,1.64E-09,,
,8.692004,1.62E-09,,
,8.694004,1.60E-09,,
,8.696004,1.58E-09,,
,8.698004,1.55E-09,,
,8.700004,1.53E-09,,
,8.702004,1.50E-09,,
,8.704004,1.48E-09,,
,8.706004,1.45E-09,,
,8.708004,1.42E-09,,
,8.710004,1.38E-09,,
,8.712004,1.35E-09,,
,8.714004,1.32E-09,,
,8.716004,1.28E-09,,
,8.718004,1.25E-09,,
,8.720004,1.22E-09,,
,8.722004,1.18E-09,,
,8.724004,1.14E-09,,
,8.726004,1.11E-09,,
,8.728004,1.07E-09,,
,8.730004,1.04E-09,,
,8.732004,1.00E-09,,
,8.734004,9.68E-10,,
,8.736004,9.34E-10,,
,8.738004,9.00E-10,,
,8.740004,8.66E-10,,
,8.742004,8.31E-10,,
,8.744004,7.98E-10,,
,8.746004,7.65E-10,,
,8.748004,7.33E-10,,
,8.750004,7.01E-10,,
,8.752004,6.71E-10,,
,8.754004,6.41E-10,,
,8.756004,6.12E-10,,
,8.758004,5.84E-10,,
,8.760004,5.57E-10,,
,8.762004,5.31E-10,,
,8.764004,5.07E-10,,
,8.766004,4.84E-10,,
,8.768004,4.62E-10,,
,8.770004,4.41E-10,,
,8.772004,4.21E-10,,
,8.774004,4.01E-10,,
,8.776004,3.82E-10,,
,8.778004,3.64E-10,,
,8.780004,3.47E-10,,
,8.782004,3.31E-10,,
,8.784004,3.17E-10,,
,8.786004,3.04E-10,,
,8.788004,2.92E-10,,
,8.790004,2.81E-10,,
,8.792004,2.71E-10,,
,8.794004,2.62E-10,,
,8.796004,2.55E-10,,
,8.798004,2.49E-10,,
,8.800004,2.43E-10,,
,8.802004,2.39E-10,,
,8.804004,2.36E-10,,
,8.806004,2.33E-10,,
,8.808004,2.32E-10,,
,8.810004,2.31E-10,,
,8.812004,2.32E-10,,
,8.814004,2.33E-10,,
,8.816004,2.36E-10,,
,8.818004,2.39E-10,,
,8.820004,2.43E-10,,
,8.822004,2.48E-10,,
,8.824004,2.54E-10,,
,8.826004,2.61E-10,,
,8.828004,2.69E-10,,
,8.830004,2.79E-10,,
,8.832004,2.90E-10,,
,8.834004,3.02E-10,,
,8.836004,3.16E-10,,
,8.838004,3.30E-10,,
,8.840004,3.44E-10,,
,8.842004,3.59E-10,,
,8.844004,3.75E-10,,
,8.846004,3.92E-10,,
,8.848004,4.09E-10,,
,8.850004,4.28E-10,,
,8.852004,4.47E-10,,
,8.854004,4.68E-10,,
,8.856004,4.88E-10,,
,8.858004,5.10E-10,,
,8.860004,5.32E-10,,
,8.862004,5.55E-10,,
,8.864004,5.79E-10,,
,8.866004,6.04E-10,,
,8.868004,6.30E-10,,
,8.870004,6.55E-10,,
,8.872004,6.81E-10,,
,8.874004,7.06E-10,,
,8.876004,7.32E-10,,
,8.878004,7.57E-10,,
,8.880004,7.83E-10,,
,8.882004,8.08E-10,,
,8.884004,8.34E-10,,
,8.886004,8.59E-10,,
,8.888004,8.84E-10,,
,8.890004,9.09E-10,,
,8.892004,9.33E-10,,
,8.894004,9.57E-10,,
,8.896004,9.82E-10,,
,8.898004,1.01E-09,,
,8.900004,1.03E-09,,
,8.902004,1.06E-09,,
,8.904004,1.08E-09,,
,8.906004,1.10E-09,,
,8.908004,1.12E-09,,
,8.910004,1.14E-09,,
,8.912004,1.16E-09,,
,8.914004,1.18E-09,,
,8.916004,1.19E-09,,
,8.918004,1.21E-09,,
,8.920004,1.23E-09,,
,8.922004,1.24E-09,,
,8.924004,1.25E-09,,
,8.926004,1.26E-09,,
,8.928004,1.27E-09,,
,8.930004,1.28E-09,,
,8.932004,1.29E-09,,
,8.934004,1.30E-09,,
,8.936004,1.31E-09,,
,8.938004,1.32E-09,,
,8.940004,1.32E-09,,
,8.942004,1.32E-09,,
,8.944004,1.32E-09,,
,8.946004,1.32E-09,,
,8.948004,1.32E-09,,
,8.950004,1.31E-09,,
,8.952004,1.31E-09,,
,8.954004,1.30E-09,,
,8.956004,1.29E-09,,
,8.958004,1.28E-09,,
,8.960004,1.27E-09,,
,8.962004,1.26E-09,,
,8.964004,1.25E-09,,
,8.966004,1.24E-09,,
,8.968004,1.22E-09,,
,8.970004,1.21E-09,,
,8.972004,1.19E-09,,
,8.974004,1.17E-09,,
,8.976004,1.15E-09,,
,8.978004,1.13E-09,,
,8.980004,1.11E-09,,
,8.982004,1.09E-09,,
,8.984004,1.07E-09,,
,8.986004,1.04E-09,,
,8.988004,1.02E-09,,
,8.990004,9.90E-10,,
,8.992004,9.63E-10,,
,8.994004,9.37E-10,,
,8.996004,9.09E-10,,
,8.998004,8.83E-10,,
,9.000004,8.55E-10,,
,9.002004,8.28E-10,,
,9.004004,8.00E-10,,
,9.006004,7.71E-10,,
,9.008004,7.41E-10,,
,9.010004,7.11E-10,,
,9.012004,6.80E-10,,
,9.014004,6.49E-10,,
,9.016004,6.18E-10,,
,9.018004,5.87E-10,,
,9.020004,5.57E-10,,
,9.022004,5.25E-10,,
,9.024004,4.94E-10,,
,9.026004,4.64E-10,,
,9.028004,4.34E-10,,
,9.030004,4.05E-10,,
,9.032004,3.76E-10,,
,9.034004,3.48E-10,,
,9.036004,3.20E-10,,
,9.038004,2.92E-10,,
,9.040004,2.64E-10,,
,9.042004,2.36E-10,,
,9.044004,2.08E-10,,
,9.046004,1.81E-10,,
,9.048004,1.54E-10,,
,9.050004,1.28E-10,,
,9.052004,1.03E-10,,
,9.054004,7.82E-11,,
,9.056004,5.40E-11,,
,9.058004,3.07E-11,,
,9.060004,8.35E-12,,
,9.062004,-1.28E-11,,
,9.064004,-3.28E-11,,
,9.066004,-5.17E-11,,
,9.068004,-6.94E-11,,
,9.070004,-8.63E-11,,
,9.072004,-1.03E-10,,
,9.074004,-1.19E-10,,
,9.076004,-1.34E-10,,
,9.078004,-1.48E-10,,
,9.080004,-1.62E-10,,
,9.082004,-1.74E-10,,
,9.084004,-1.86E-10,,
,9.086004,-1.96E-10,,
,9.088004,-2.06E-10,,
,9.090004,-2.14E-10,,
,9.092004,-2.22E-10,,
,9.094004,-2.27E-10,,
,9.096004,-2.31E-10,,
,9.098004,-2.34E-10,,
,9.100004,-2.35E-10,,
,9.102004,-2.35E-10,,
,9.104004,-2.35E-10,,
,9.106004,-2.34E-10,,
,9.108004,-2.33E-10,,
,9.110004,-2.31E-10,,
,9.112004,-2.28E-10,,
,9.114004,-2.23E-10,,
,9.116004,-2.18E-10,,
,9.118004,-2.12E-10,,
,9.120004,-2.04E-10,,
,9.122004,-1.96E-10,,
,9.124004,-1.88E-10,,
,9.126004,-1.78E-10,,
,9.128004,-1.67E-10,,
,9.130004,-1.54E-10,,
,9.132004,-1.40E-10,,
,9.134004,-1.26E-10,,
,9.136004,-1.10E-10,,
,9.138004,-9.48E-11,,
,9.140004,-7.95E-11,,
,9.142004,-6.38E-11,,
,9.144004,-4.80E-11,,
,9.146004,-3.18E-11,,
,9.148004,-1.55E-11,,
,9.150004,1.37E-12,,
,9.152004,1.88E-11,,
,9.154004,3.65E-11,,
,9.156004,5.45E-11,,
,9.158004,7.29E-11,,
,9.160004,9.17E-11,,
,9.162004,1.11E-10,,
,9.164004,1.31E-10,,
,9.166004,1.52E-10,,
,9.168004,1.72E-10,,
,9.170004,1.93E-10,,
,9.172004,2.13E-10,,
,9.174004,2.33E-10,,
,9.176004,2.51E-10,,
,9.178004,2.69E-10,,
,9.180004,2.87E-10,,
,9.182004,3.04E-10,,
,9.184004,3.21E-10,,
,9.186004,3.37E-10,,
,9.188004,3.54E-10,,
,9.190004,3.70E-10,,
,9.192004,3.85E-10,,
,9.194004,4.00E-10,,
,9.196004,4.15E-10,,
,9.198004,4.30E-10,,
,9.200004,4.44E-10,,
,9.202004,4.58E-10,,
,9.204004,4.70E-10,,
,9.206004,4.81E-10,,
,9.208004,4.90E-10,,
,9.210004,4.99E-10,,
,9.212004,5.06E-10,,
,9.214004,5.12E-10,,
,9.216004,5.17E-10,,
,9.218004,5.22E-10,,
,9.220004,5.27E-10,,
,9.222004,5.30E-10,,
,9.224004,5.34E-10,,
,9.226004,5.36E-10,,
,9.228004,5.38E-10,,
,9.230004,5.39E-10,,
,9.232004,5.40E-10,,
,9.234004,5.41E-10,,
,9.236004,5.40E-10,,
,9.238004,5.38E-10,,
,9.240004,5.34E-10,,
,9.242004,5.28E-10,,
,9.244004,5.22E-10,,
,9.246004,5.14E-10,,
,9.248004,5.07E-10,,
,9.250004,4.99E-10,,
,9.252004,4.91E-10,,
,9.254004,4.83E-10,,
,9.256004,4.74E-10,,
,9.258004,4.65E-10,,
,9.260004,4.54E-10,,
,9.262004,4.44E-10,,
,9.264004,4.32E-10,,
,9.266004,4.20E-10,,
,9.268004,4.08E-10,,
,9.270004,3.95E-10,,
,9.272004,3.81E-10,,
,9.274004,3.67E-10,,
,9.276004,3.52E-10,,
,9.278004,3.36E-10,,
,9.280004,3.21E-10,,
,9.282004,3.06E-10,,
,9.284004,2.91E-10,,
,9.286004,2.77E-10,,
,9.288004,2.63E-10,,
,9.290004,2.48E-10,,
,9.292004,2.33E-10,,
,9.294004,2.17E-10,,
,9.296004,2.02E-10,,
,9.298004,1.87E-10,,
,9.300004,1.72E-10,,
,9.302004,1.58E-10,,
,9.304004,1.43E-10,,
,9.306004,1.29E-10,,
,9.308004,1.14E-10,,
,9.310004,1.00E-10,,
,9.312004,8.64E-11,,
,9.314004,7.31E-11,,
,9.316004,6.07E-11,,
,9.318004,4.86E-11,,
,9.320004,3.70E-11,,
,9.322004,2.52E-11,,
,9.324004,1.33E-11,,
,9.326004,1.80E-12,,
,9.328004,-9.26E-12,,
,9.330004,-1.98E-11,,
,9.332004,-2.97E-11,,
,9.334004,-3.89E-11,,
,9.336004,-4.72E-11,,
,9.338004,-5.49E-11,,
,9.340004,-6.23E-11,,
,9.342004,-6.95E-11,,
,9.344004,-7.64E-11,,
,9.346004,-8.26E-11,,
,9.348004,-8.82E-11,,
,9.350004,-9.35E-11,,
,9.352004,-9.86E-11,,
,9.354004,-1.03E-10,,
,9.356004,-1.07E-10,,
,9.358004,-1.11E-10,,
,9.360004,-1.15E-10,,
,9.362004,-1.17E-10,,
,9.364004,-1.18E-10,,
,9.366004,-1.19E-10,,
,9.368004,-1.19E-10,,
,9.370004,-1.19E-10,,
,9.372004,-1.18E-10,,
,9.374004,-1.18E-10,,
,9.376004,-1.17E-10,,
,9.378004,-1.16E-10,,
,9.380004,-1.14E-10,,
,9.382004,-1.13E-10,,
,9.384004,-1.11E-10,,
,9.386004,-1.09E-10,,
,9.388004,-1.07E-10,,
,9.390004,-1.05E-10,,
,9.392004,-1.03E-10,,
,9.394004,-1.01E-10,,
,9.396004,-9.89E-11,,
,9.398004,-9.58E-11,,
,9.400004,-9.19E-11,,
,9.402004,-8.79E-11,,
,9.404004,-8.38E-11,,
,9.406004,-7.96E-11,,
,9.408004,-7.53E-11,,
,9.410004,-7.09E-11,,
,9.412004,-6.66E-11,,
,9.414004,-6.20E-11,,
,9.416004,-5.74E-11,,
,9.418004,-5.25E-11,,
,9.420004,-4.77E-11,,
,9.422004,-4.29E-11,,
,9.424004,-3.79E-11,,
,9.426004,-3.28E-11,,
,9.428004,-2.68E-11,,
,9.430004,-2.01E-11,,
,9.432004,-1.27E-11,,
,9.434004,-4.75E-12,,
,9.436004,3.73E-12,,
,9.438004,1.23E-11,,
,9.440004,2.06E-11,,
,9.442004,2.85E-11,,
,9.444004,3.64E-11,,
,9.446004,4.42E-11,,
,9.448004,5.18E-11,,
,9.450004,5.93E-11,,
,9.452004,6.68E-11,,
,9.454004,7.44E-11,,
,9.456004,8.19E-11,,
,9.458004,8.94E-11,,
,9.460004,9.70E-11,,
,9.462004,1.05E-10,,
,9.464004,1.14E-10,,
,9.466004,1.23E-10,,
,9.468004,1.33E-10,,
,9.470004,1.42E-10,,
,9.472004,1.52E-10,,
,9.474004,1.60E-10,,
,9.476004,1.68E-10,,
,9.478004,1.75E-10,,
,9.480004,1.82E-10,,
,9.482004,1.89E-10,,
,9.484004,1.95E-10,,
,9.486004,2.01E-10,,
,9.488004,2.07E-10,,
,9.490004,2.12E-10,,
,9.492004,2.18E-10,,
,9.494004,2.24E-10,,
,9.496004,2.30E-10,,
,9.498004,2.36E-10,,
,9.500004,2.42E-10,,
,9.502004,2.48E-10,,
,9.504004,2.54E-10,,
,9.506004,2.57E-10,,
,9.508004,2.60E-10,,
,9.510004,2.62E-10,,
,9.512004,2.63E-10,,
,9.514004,2.63E-10,,
,9.516004,2.63E-10,,
,9.518004,2.62E-10,,
,9.520004,2.61E-10,,
,9.522004,2.59E-10,,
,9.524004,2.57E-10,,
,9.526004,2.55E-10,,
,9.528004,2.52E-10,,
,9.530004,2.49E-10,,
,9.532004,2.46E-10,,
,9.534004,2.42E-10,,
,9.536004,2.38E-10,,
,9.538004,2.33E-10,,
,9.540004,2.28E-10,,
,9.542004,2.21E-10,,
,9.544004,2.14E-10,,
,9.546004,2.07E-10,,
,9.548004,2.00E-10,,
,9.550004,1.92E-10,,
,9.552004,1.85E-10,,
,9.554004,1.78E-10,,
,9.556004,1.71E-10,,
,9.558004,1.63E-10,,
,9.560004,1.56E-10,,
,9.562004,1.50E-10,,
,9.564004,1.44E-10,,
,9.566004,1.39E-10,,
,9.568004,1.34E-10,,
,9.570004,1.29E-10,,
,9.572004,1.23E-10,,
,9.574004,1.18E-10,,
,9.576004,1.12E-10,,
,9.578004,1.06E-10,,
,9.580004,1.00E-10,,
,9.582004,9.58E-11,,
,9.584004,9.20E-11,,
,9.586004,8.83E-11,,
,9.588004,8.52E-11,,
,9.590004,8.23E-11,,
,9.592004,7.98E-11,,
,9.594004,7.77E-11,,
,9.596004,7.62E-11,,
,9.598004,7.56E-11,,
,9.600004,7.56E-11,,
,9.602004,7.60E-11,,
,9.604004,7.65E-11,,
,9.606004,7.71E-11,,
,9.608004,7.77E-11,,
,9.610004,7.90E-11,,
,9.612004,8.07E-11,,
,9.614004,8.34E-11,,
,9.616004,8.64E-11,,
,9.618004,9.04E-11,,
,9.620004,9.49E-11,,
,9.622004,1.00E-10,,
,9.624004,1.06E-10,,
,9.626004,1.12E-10,,
,9.628004,1.18E-10,,
,9.630004,1.26E-10,,
,9.632004,1.34E-10,,
,9.634004,1.44E-10,,
,9.636004,1.54E-10,,
,9.638004,1.64E-10,,
,9.640004,1.75E-10,,
,9.642004,1.85E-10,,
,9.644004,1.97E-10,,
,9.646004,2.08E-10,,
,9.648004,2.21E-10,,
,9.650004,2.34E-10,,
,9.652004,2.47E-10,,
,9.654004,2.61E-10,,
,9.656004,2.75E-10,,
,9.658004,2.89E-10,,
,9.660004,3.03E-10,,
,9.662004,3.18E-10,,
,9.664004,3.32E-10,,
,9.666004,3.48E-10,,
,9.668004,3.63E-10,,
,9.670004,3.79E-10,,
,9.672004,3.94E-10,,
,9.674004,4.08E-10,,
,9.676004,4.21E-10,,
,9.678004,4.34E-10,,
,9.680004,4.47E-10,,
,9.682004,4.59E-10,,
,9.684004,4.70E-10,,
,9.686004,4.81E-10,,
,9.688004,4.91E-10,,
,9.690004,5.00E-10,,
,9.692004,5.08E-10,,
,9.694004,5.15E-10,,
,9.696004,5.21E-10,,
,9.698004,5.27E-10,,
,9.700004,5.32E-10,,
,9.702004,5.35E-10,,
,9.704004,5.37E-10,,
,9.706004,5.38E-10,,
,9.708004,5.36E-10,,
,9.710004,5.33E-10,,
,9.712004,5.28E-10,,
,9.714004,5.22E-10,,
,9.716004,5.15E-10,,
,9.718004,5.06E-10,,
,9.720004,4.96E-10,,
,9.722004,4.84E-10,,
,9.724004,4.70E-10,,
,9.726004,4.55E-10,,
,9.728004,4.38E-10,,
,9.730004,4.20E-10,,
,9.732004,4.01E-10,,
,9.734004,3.81E-10,,
,9.736004,3.58E-10,,
,9.738004,3.35E-10,,
,9.740004,3.10E-10,,
,9.742004,2.83E-10,,
,9.744004,2.56E-10,,
,9.746004,2.28E-10,,
,9.748004,1.99E-10,,
,9.750004,1.69E-10,,
,9.752004,1.39E-10,,
,9.754004,1.08E-10,,
,9.756004,7.62E-11,,
,9.758004,4.38E-11,,
,9.760004,1.11E-11,,
,9.762004,-2.15E-11,,
,9.764004,-5.40E-11,,
,9.766004,-8.61E-11,,
,9.768004,-1.18E-10,,
,9.770004,-1.50E-10,,
,9.772004,-1.82E-10,,
,9.774004,-2.15E-10,,
,9.776004,-2.47E-10,,
,9.778004,-2.79E-10,,
,9.780004,-3.11E-10,,
,9.782004,-3.42E-10,,
,9.784004,-3.72E-10,,
,9.786004,-4.01E-10,,
,9.788004,-4.30E-10,,
,9.790004,-4.58E-10,,
,9.792004,-4.85E-10,,
,9.794004,-5.12E-10,,
,9.796004,-5.37E-10,,
,9.798004,-5.60E-10,,
,9.800004,-5.82E-10,,
,9.802004,-6.03E-10,,
,9.804004,-6.22E-10,,
,9.806004,-6.40E-10,,
,9.808004,-6.58E-10,,
,9.810004,-6.74E-10,,
,9.812004,-6.89E-10,,
,9.814004,-7.01E-10,,
,9.816004,-7.13E-10,,
,9.818004,-7.22E-10,,
,9.820004,-7.29E-10,,
,9.822004,-7.34E-10,,
,9.824004,-7.38E-10,,
,9.826004,-7.39E-10,,
,9.828004,-7.38E-10,,
,9.830004,-7.35E-10,,
,9.832004,-7.30E-10,,
,9.834004,-7.23E-10,,
,9.836004,-7.13E-10,,
,9.838004,-7.02E-10,,
,9.840004,-6.89E-10,,
,9.842004,-6.74E-10,,
,9.844004,-6.58E-10,,
,9.846004,-6.39E-10,,
,9.848004,-6.17E-10,,
,9.850004,-5.94E-10,,
,9.852004,-5.68E-10,,
,9.854004,-5.40E-10,,
,9.856004,-5.10E-10,,
,9.858004,-4.78E-10,,
,9.860004,-4.44E-10,,
,9.862004,-4.08E-10,,
,9.864004,-3.70E-10,,
,9.866004,-3.31E-10,,
,9.868004,-2.89E-10,,
,9.870004,-2.47E-10,,
,9.872004,-2.03E-10,,
,9.874004,-1.59E-10,,
,9.876004,-1.15E-10,,
,9.878004,-6.97E-11,,
,9.880004,-2.41E-11,,
,9.882004,2.22E-11,,
,9.884004,6.89E-11,,
,9.886004,1.15E-10,,
,9.888004,1.61E-10,,
,9.890004,2.06E-10,,
,9.892004,2.50E-10,,
,9.894004,2.92E-10,,
,9.896004,3.34E-10,,
,9.898004,3.75E-10,,
,9.900004,4.14E-10,,
,9.902004,4.51E-10,,
,9.904004,4.87E-10,,
,9.906004,5.20E-10,,
,9.908004,5.51E-10,,
,9.910004,5.80E-10,,
,9.912004,6.07E-10,,
,9.914004,6.32E-10,,
,9.916004,6.56E-10,,
,9.918004,6.77E-10,,
,9.920004,6.96E-10,,
,9.922004,7.13E-10,,
,9.924004,7.28E-10,,
,9.926004,7.40E-10,,
,9.928004,7.50E-10,,
,9.930004,7.58E-10,,
,9.932004,7.63E-10,,
,9.934004,7.66E-10,,
,9.936004,7.67E-10,,
,9.938004,7.65E-10,,
,9.940004,7.60E-10,,
,9.942004,7.53E-10,,
,9.944004,7.44E-10,,
,9.946004,7.33E-10,,
,9.948004,7.20E-10,,
,9.950004,7.05E-10,,
,9.952004,6.89E-10,,
,9.954004,6.71E-10,,
,9.956004,6.52E-10,,
,9.958004,6.31E-10,,
,9.960004,6.08E-10,,
,9.962004,5.84E-10,,
,9.964004,5.59E-10,,
,9.966004,5.34E-10,,
,9.968004,5.07E-10,,
,9.970004,4.79E-10,,
,9.972004,4.51E-10,,
,9.974004,4.22E-10,,
,9.976004,3.93E-10,,
,9.978004,3.64E-10,,
,9.980004,3.36E-10,,
,9.982004,3.09E-10,,
,9.984004,2.82E-10,,
,9.986004,2.56E-10,,
,9.988004,2.31E-10,,
,9.990004,2.07E-10,,
,9.992004,1.84E-10,,
,9.994004,1.61E-10,,
,9.996004,1.40E-10,,
,9.998004,1.21E-10,,
,10.000004,1.02E-10,,
,10.002004,8.59E-11,,
,10.004004,7.10E-11,,
,10.006004,5.75E-11,,
,10.008004,4.60E-11,,
,10.010004,3.66E-11,,
,10.012004,2.95E-11,,
,10.014004,2.45E-11,,
,10.016004,2.16E-11,,
,10.018004,2.08E-11,,
,10.020004,2.18E-11,,
,10.022004,2.40E-11,,
,10.024004,2.72E-11,,
,10.026004,3.15E-11,,
,10.028004,3.70E-11,,
,10.030004,4.38E-11,,
,10.032004,5.15E-11,,
,10.034004,6.02E-11,,
,10.036004,6.92E-11,,
,10.038004,7.88E-11,,
,10.040004,8.82E-11,,
,10.042004,9.77E-11,,
,10.044004,1.07E-10,,
,10.046004,1.16E-10,,
,10.048004,1.26E-10,,
,10.050004,1.36E-10,,
,10.052004,1.45E-10,,
,10.054004,1.55E-10,,
,10.056004,1.65E-10,,
,10.058004,1.73E-10,,
,10.060004,1.82E-10,,
,10.062004,1.89E-10,,
,10.064004,1.97E-10,,
,10.066004,2.04E-10,,
,10.068004,2.10E-10,,
,10.070004,2.17E-10,,
,10.072004,2.22E-10,,
,10.074004,2.26E-10,,
,10.076004,2.30E-10,,
,10.078004,2.33E-10,,
,10.080004,2.36E-10,,
,10.082004,2.39E-10,,
,10.084004,2.41E-10,,
,10.086004,2.42E-10,,
,10.088004,2.43E-10,,
,10.090004,2.42E-10,,
,10.092004,2.40E-10,,
,10.094004,2.37E-10,,
,10.096004,2.34E-10,,
,10.098004,2.31E-10,,
,10.100004,2.27E-10,,
,10.102004,2.23E-10,,
,10.104004,2.18E-10,,
,10.106004,2.13E-10,,
,10.108004,2.07E-10,,
,10.110004,2.01E-10,,
,10.112004,1.94E-10,,
,10.114004,1.87E-10,,
,10.116004,1.79E-10,,
,10.118004,1.71E-10,,
,10.120004,1.61E-10,,
,10.122004,1.51E-10,,
,10.124004,1.40E-10,,
,10.126004,1.29E-10,,
,10.128004,1.18E-10,,
,10.130004,1.06E-10,,
,10.132004,9.49E-11,,
,10.134004,8.35E-11,,
,10.136004,7.20E-11,,
,10.138004,5.99E-11,,
,10.140004,4.72E-11,,
,10.142004,3.41E-11,,
,10.144004,2.06E-11,,
,10.146004,6.95E-12,,
,10.148004,-7.33E-12,,
,10.150004,-2.17E-11,,
,10.152004,-3.68E-11,,
,10.154004,-5.20E-11,,
,10.156004,-6.76E-11,,
,10.158004,-8.38E-11,,
,10.160004,-1.00E-10,,
,10.162004,-1.16E-10,,
,10.164004,-1.32E-10,,
,10.166004,-1.47E-10,,
,10.168004,-1.62E-10,,
,10.170004,-1.77E-10,,
,10.172004,-1.92E-10,,
,10.174004,-2.08E-10,,
,10.176004,-2.24E-10,,
,10.178004,-2.39E-10,,
,10.180004,-2.55E-10,,
,10.182004,-2.70E-10,,
,10.184004,-2.86E-10,,
,10.186004,-3.01E-10,,
,10.188004,-3.16E-10,,
,10.190004,-3.32E-10,,
,10.192004,-3.48E-10,,
,10.194004,-3.64E-10,,
,10.196004,-3.79E-10,,
,10.198004,-3.93E-10,,
,10.200004,-4.07E-10,,
,10.202004,-4.22E-10,,
,10.204004,-4.36E-10,,
,10.206004,-4.50E-10,,
,10.208004,-4.64E-10,,
,10.210004,-4.79E-10,,
,10.212004,-4.94E-10,,
,10.214004,-5.08E-10,,
,10.216004,-5.23E-10,,
,10.218004,-5.38E-10,,
,10.220004,-5.54E-10,,
,10.222004,-5.70E-10,,
,10.224004,-5.86E-10,,
,10.226004,-6.03E-10,,
,10.228004,-6.19E-10,,
,10.230004,-6.36E-10,,
,10.232004,-6.53E-10,,
,10.234004,-6.70E-10,,
,10.236004,-6.88E-10,,
,10.238004,-7.06E-10,,
,10.240004,-7.25E-10,,
,10.242004,-7.46E-10,,
,10.244004,-7.68E-10,,
,10.246004,-7.91E-10,,
,10.248004,-8.14E-10,,
,10.250004,-8.39E-10,,
,10.252004,-8.64E-10,,
,10.254004,-8.91E-10,,
,10.256004,-9.20E-10,,
,10.258004,-9.49E-10,,
,10.260004,-9.79E-10,,
,10.262004,-1.01E-09,,
,10.264004,-1.04E-09,,
,10.266004,-1.07E-09,,
,10.268004,-1.11E-09,,
,10.270004,-1.14E-09,,
,10.272004,-1.18E-09,,
,10.274004,-1.21E-09,,
,10.276004,-1.25E-09,,
,10.278004,-1.28E-09,,
,10.280004,-1.32E-09,,
,10.282004,-1.35E-09,,
,10.284004,-1.39E-09,,
,10.286004,-1.42E-09,,
,10.288004,-1.45E-09,,
,10.290004,-1.49E-09,,
,10.292004,-1.52E-09,,
,10.294004,-1.55E-09,,
,10.296004,-1.57E-09,,
,10.298004,-1.60E-09,,
,10.300004,-1.62E-09,,
,10.302004,-1.65E-09,,
,10.304004,-1.67E-09,,
,10.306004,-1.69E-09,,
,10.308004,-1.70E-09,,
,10.310004,-1.72E-09,,
,10.312004,-1.73E-09,,
,10.314004,-1.74E-09,,
,10.316004,-1.75E-09,,
,10.318004,-1.75E-09,,
,10.320004,-1.76E-09,,
,10.322004,-1.76E-09,,
,10.324004,-1.75E-09,,
,10.326004,-1.75E-09,,
,10.328004,-1.74E-09,,
,10.330004,-1.73E-09,,
,10.332004,-1.72E-09,,
,10.334004,-1.71E-09,,
,10.336004,-1.69E-09,,
,10.338004,-1.67E-09,,
,10.340004,-1.65E-09,,
,10.342004,-1.62E-09,,
,10.344004,-1.60E-09,,
,10.346004,-1.57E-09,,
,10.348004,-1.54E-09,,
,10.350004,-1.51E-09,,
,10.352004,-1.47E-09,,
,10.354004,-1.44E-09,,
,10.356004,-1.40E-09,,
,10.358004,-1.36E-09,,
,10.360004,-1.32E-09,,
,10.362004,-1.28E-09,,
,10.364004,-1.24E-09,,
,10.366004,-1.20E-09,,
,10.368004,-1.16E-09,,
,10.370004,-1.11E-09,,
,10.372004,-1.07E-09,,
,10.374004,-1.03E-09,,
,10.376004,-9.83E-10,,
,10.378004,-9.39E-10,,
,10.380004,-8.95E-10,,
,10.382004,-8.51E-10,,
,10.384004,-8.07E-10,,
,10.386004,-7.64E-10,,
,10.388004,-7.20E-10,,
,10.390004,-6.78E-10,,
,10.392004,-6.37E-10,,
,10.394004,-5.96E-10,,
,10.396004,-5.55E-10,,
,10.398004,-5.15E-10,,
,10.400004,-4.75E-10,,
,10.402004,-4.36E-10,,
,10.404004,-3.97E-10,,
,10.406004,-3.60E-10,,
,10.408004,-3.24E-10,,
,10.410004,-2.89E-10,,
,10.412004,-2.55E-10,,
,10.414004,-2.21E-10,,
,10.416004,-1.88E-10,,
,10.418004,-1.56E-10,,
,10.420004,-1.25E-10,,
,10.422004,-9.51E-11,,
,10.424004,-6.65E-11,,
,10.426004,-3.90E-11,,
,10.428004,-1.26E-11,,
,10.430004,1.33E-11,,
,10.432004,3.85E-11,,
,10.434004,6.33E-11,,
,10.436004,8.71E-11,,
,10.438004,1.10E-10,,
,10.440004,1.32E-10,,
,10.442004,1.52E-10,,
,10.444004,1.71E-10,,
,10.446004,1.90E-10,,
,10.448004,2.07E-10,,
,10.450004,2.23E-10,,
,10.452004,2.38E-10,,
,10.454004,2.51E-10,,
,10.456004,2.62E-10,,
,10.458004,2.72E-10,,
,10.460004,2.82E-10,,
,10.462004,2.90E-10,,
,10.464004,2.97E-10,,
,10.466004,3.04E-10,,
,10.468004,3.09E-10,,
,10.470004,3.13E-10,,
,10.472004,3.16E-10,,
,10.474004,3.17E-10,,
,10.476004,3.17E-10,,
,10.478004,3.16E-10,,
,10.480004,3.13E-10,,
,10.482004,3.09E-10,,
,10.484004,3.04E-10,,
,10.486004,2.99E-10,,
,10.488004,2.92E-10,,
,10.490004,2.84E-10,,
,10.492004,2.75E-10,,
,10.494004,2.65E-10,,
,10.496004,2.55E-10,,
,10.498004,2.45E-10,,
,10.500004,2.34E-10,,
,10.502004,2.23E-10,,
,10.504004,2.11E-10,,
,10.506004,1.99E-10,,
,10.508004,1.86E-10,,
,10.510004,1.72E-10,,
,10.512004,1.58E-10,,
,10.514004,1.43E-10,,
,10.516004,1.29E-10,,
,10.518004,1.15E-10,,
,10.520004,1.01E-10,,
,10.522004,8.69E-11,,
,10.524004,7.29E-11,,
,10.526004,5.89E-11,,
,10.528004,4.58E-11,,
,10.530004,3.35E-11,,
,10.532004,2.19E-11,,
,10.534004,1.08E-11,,
,10.536004,7.26E-13,,
,10.538004,-8.94E-12,,
,10.540004,-1.84E-11,,
,10.542004,-2.77E-11,,
,10.544004,-3.63E-11,,
,10.546004,-4.38E-11,,
,10.548004,-5.04E-11,,
,10.550004,-5.57E-11,,
,10.552004,-6.01E-11,,
,10.554004,-6.34E-11,,
,10.556004,-6.59E-11,,
,10.558004,-6.78E-11,,
,10.560004,-6.89E-11,,
,10.562004,-6.87E-11,,
,10.564004,-6.70E-11,,
,10.566004,-6.43E-11,,
,10.568004,-6.12E-11,,
,10.570004,-5.77E-11,,
,10.572004,-5.35E-11,,
,10.574004,-4.89E-11,,
,10.576004,-4.40E-11,,
,10.578004,-3.88E-11,,
,10.580004,-3.30E-11,,
,10.582004,-2.65E-11,,
,10.584004,-1.96E-11,,
,10.586004,-1.20E-11,,
,10.588004,-4.10E-12,,
,10.590004,3.41E-12,,
,10.592004,1.07E-11,,
,10.594004,1.78E-11,,
,10.596004,2.50E-11,,
,10.598004,3.24E-11,,
,10.600004,3.97E-11,,
,10.602004,4.71E-11,,
,10.604004,5.41E-11,,
,10.606004,6.08E-11,,
,10.608004,6.69E-11,,
,10.610004,7.22E-11,,
,10.612004,7.72E-11,,
,10.614004,8.22E-11,,
,10.616004,8.77E-11,,
,10.618004,9.29E-11,,
,10.620004,9.77E-11,,
,10.622004,1.02E-10,,
,10.624004,1.05E-10,,
,10.626004,1.07E-10,,
,10.628004,1.10E-10,,
,10.630004,1.13E-10,,
,10.632004,1.15E-10,,
,10.634004,1.16E-10,,
,10.636004,1.18E-10,,
,10.638004,1.19E-10,,
,10.640004,1.20E-10,,
,10.642004,1.19E-10,,
,10.644004,1.18E-10,,
,10.646004,1.17E-10,,
,10.648004,1.15E-10,,
,10.650004,1.14E-10,,
,10.652004,1.12E-10,,
,10.654004,1.09E-10,,
,10.656004,1.06E-10,,
,10.658004,1.02E-10,,
,10.660004,9.84E-11,,
,10.662004,9.43E-11,,
,10.664004,9.04E-11,,
,10.666004,8.66E-11,,
,10.668004,8.27E-11,,
,10.670004,7.87E-11,,
,10.672004,7.47E-11,,
,10.674004,7.03E-11,,
,10.676004,6.54E-11,,
,10.678004,6.03E-11,,
,10.680004,5.55E-11,,
,10.682004,5.10E-11,,
,10.684004,4.60E-11,,
,10.686004,4.06E-11,,
,10.688004,3.43E-11,,
,10.690004,2.75E-11,,
,10.692004,2.04E-11,,
,10.694004,1.32E-11,,
,10.696004,5.99E-12,,
,10.698004,-1.21E-12,,
,10.700004,-8.51E-12,,
,10.702004,-1.57E-11,,
,10.704004,-2.30E-11,,
,10.706004,-2.99E-11,,
,10.708004,-3.70E-11,,
,10.710004,-4.40E-11,,
,10.712004,-5.10E-11,,
,10.714004,-5.74E-11,,
,10.716004,-6.37E-11,,
,10.718004,-6.99E-11,,
,10.720004,-7.64E-11,,
,10.722004,-8.30E-11,,
,10.724004,-9.02E-11,,
,10.726004,-9.77E-11,,
,10.728004,-1.05E-10,,
,10.730004,-1.12E-10,,
,10.732004,-1.19E-10,,
,10.734004,-1.26E-10,,
,10.736004,-1.34E-10,,
,10.738004,-1.42E-10,,
,10.740004,-1.51E-10,,
,10.742004,-1.60E-10,,
,10.744004,-1.70E-10,,
,10.746004,-1.80E-10,,
,10.748004,-1.91E-10,,
,10.750004,-2.01E-10,,
,10.752004,-2.11E-10,,
,10.754004,-2.22E-10,,
,10.756004,-2.35E-10,,
,10.758004,-2.50E-10,,
,10.760004,-2.66E-10,,
,10.762004,-2.85E-10,,
,10.764004,-3.07E-10,,
,10.766004,-3.30E-10,,
,10.768004,-3.55E-10,,
,10.770004,-3.83E-10,,
,10.772004,-4.12E-10,,
,10.774004,-4.44E-10,,
,10.776004,-4.78E-10,,
,10.778004,-5.13E-10,,
,10.780004,-5.49E-10,,
,10.782004,-5.86E-10,,
,10.784004,-6.23E-10,,
,10.786004,-6.60E-10,,
,10.788004,-6.98E-10,,
,10.790004,-7.36E-10,,
,10.792004,-7.73E-10,,
,10.794004,-8.09E-10,,
,10.796004,-8.45E-10,,
,10.798004,-8.79E-10,,
,10.800004,-9.11E-10,,
,10.802004,-9.42E-10,,
,10.804004,-9.71E-10,,
,10.806004,-9.98E-10,,
,10.808004,-1.02E-09,,
,10.810004,-1.05E-09,,
,10.812004,-1.07E-09,,
,10.814004,-1.09E-09,,
,10.816004,-1.10E-09,,
,10.818004,-1.12E-09,,
,10.820004,-1.13E-09,,
,10.822004,-1.14E-09,,
,10.824004,-1.14E-09,,
,10.826004,-1.15E-09,,
,10.828004,-1.15E-09,,
,10.830004,-1.15E-09,,
,10.832004,-1.15E-09,,
,10.834004,-1.14E-09,,
,10.836004,-1.14E-09,,
,10.838004,-1.13E-09,,
,10.840004,-1.13E-09,,
,10.842004,-1.12E-09,,
,10.844004,-1.11E-09,,
,10.846004,-1.10E-09,,
,10.848004,-1.10E-09,,
,10.850004,-1.09E-09,,
,10.852004,-1.08E-09,,
,10.854004,-1.08E-09,,
,10.856004,-1.07E-09,,
,10.858004,-1.07E-09,,
,10.860004,-1.07E-09,,
,10.862004,-1.07E-09,,
,10.864004,-1.07E-09,,
,10.866004,-1.08E-09,,
,10.868004,-1.08E-09,,
,10.870004,-1.09E-09,,
,10.872004,-1.10E-09,,
,10.874004,-1.12E-09,,
,10.876004,-1.13E-09,,
,10.878004,-1.15E-09,,
,10.880004,-1.17E-09,,
,10.882004,-1.19E-09,,
,10.884004,-1.22E-09,,
,10.886004,-1.24E-09,,
,10.888004,-1.27E-09,,
,10.890004,-1.30E-09,,
,10.892004,-1.34E-09,,
,10.894004,-1.37E-09,,
,10.896004,-1.41E-09,,
,10.898004,-1.45E-09,,
,10.900004,-1.49E-09,,
,10.902004,-1.53E-09,,
,10.904004,-1.57E-09,,
,10.906004,-1.62E-09,,
,10.908004,-1.67E-09,,
,10.910004,-1.71E-09,,
,10.912004,-1.76E-09,,
,10.914004,-1.81E-09,,
,10.916004,-1.86E-09,,
,10.918004,-1.91E-09,,
,10.920004,-1.96E-09,,
,10.922004,-2.01E-09,,
,10.924004,-2.06E-09,,
,10.926004,-2.11E-09,,
,10.928004,-2.16E-09,,
,10.930004,-2.20E-09,,
,10.932004,-2.25E-09,,
,10.934004,-2.30E-09,,
,10.936004,-2.34E-09,,
,10.938004,-2.38E-09,,
,10.940004,-2.43E-09,,
,10.942004,-2.47E-09,,
,10.944004,-2.51E-09,,
,10.946004,-2.55E-09,,
,10.948004,-2.59E-09,,
,10.950004,-2.62E-09,,
