5/16/2019, 7:18:44 PM ,,,
 Current Sensitivity ,1.00E-09,,,
 This file comes from It only measurement ,0.00E+00,,,
 Sampling rate ,500,,,
 Number of samples per channel ,-1,,,
 No filter from Labview , , , ,
 , ,,,
 ***End_of_Header*** ,,,,
 , Time , Current , Filtered Current , 
,0.001001,1.93E-11,,
,0.003001,3.90E-11,,
,0.005001,5.93E-11,,
,0.007001,6.06E-11,,
,0.009001,6.16E-11,,
,0.011001,6.12E-11,,
,0.013001,5.96E-11,,
,0.015001,5.74E-11,,
,0.017001,5.56E-11,,
,0.019001,5.50E-11,,
,0.021001,5.50E-11,,
,0.023001,5.61E-11,,
,0.025001,5.68E-11,,
,0.027001,5.68E-11,,
,0.029001,5.53E-11,,
,0.031001,5.32E-11,,
,0.033001,5.15E-11,,
,0.035001,5.12E-11,,
,0.037001,5.19E-11,,
,0.039001,5.34E-11,,
,0.041001,5.46E-11,,
,0.043001,5.49E-11,,
,0.045001,5.40E-11,,
,0.047001,5.17E-11,,
,0.049001,4.96E-11,,
,0.051001,4.83E-11,,
,0.053001,4.86E-11,,
,0.055001,4.96E-11,,
,0.057001,5.08E-11,,
,0.059001,5.12E-11,,
,0.061001,5.08E-11,,
,0.063001,4.91E-11,,
,0.065001,4.76E-11,,
,0.067001,4.67E-11,,
,0.069001,4.69E-11,,
,0.071001,4.80E-11,,
,0.073001,4.96E-11,,
,0.075001,5.09E-11,,
,0.077001,5.08E-11,,
,0.079001,4.90E-11,,
,0.081001,4.68E-11,,
,0.083001,4.51E-11,,
,0.085001,4.45E-11,,
,0.087001,4.52E-11,,
,0.089001,4.66E-11,,
,0.091001,4.82E-11,,
,0.093001,4.90E-11,,
,0.095001,4.83E-11,,
,0.097001,4.66E-11,,
,0.099001,4.48E-11,,
,0.101001,4.42E-11,,
,0.103001,4.47E-11,,
,0.105001,4.60E-11,,
,0.107001,4.75E-11,,
,0.109001,4.83E-11,,
,0.111001,4.77E-11,,
,0.113001,4.60E-11,,
,0.115001,4.40E-11,,
,0.117001,4.28E-11,,
,0.119001,4.30E-11,,
,0.121001,4.45E-11,,
,0.123001,4.65E-11,,
,0.125001,4.80E-11,,
,0.127001,4.84E-11,,
,0.129001,4.74E-11,,
,0.131001,4.59E-11,,
,0.133001,4.50E-11,,
,0.135001,4.53E-11,,
,0.137001,4.67E-11,,
,0.139001,4.85E-11,,
,0.141001,5.00E-11,,
,0.143001,5.05E-11,,
,0.145001,4.97E-11,,
,0.147001,4.77E-11,,
,0.149001,4.64E-11,,
,0.151001,4.55E-11,,
,0.153001,4.62E-11,,
,0.155001,4.77E-11,,
,0.157001,5.00E-11,,
,0.159001,5.15E-11,,
,0.161001,5.15E-11,,
,0.163001,5.02E-11,,
,0.165001,4.86E-11,,
,0.167001,4.77E-11,,
,0.169001,4.81E-11,,
,0.171001,4.95E-11,,
,0.173001,5.13E-11,,
,0.175001,5.28E-11,,
,0.177001,5.30E-11,,
,0.179001,5.17E-11,,
,0.181001,4.96E-11,,
,0.183001,4.82E-11,,
,0.185001,4.81E-11,,
,0.187001,4.93E-11,,
,0.189001,5.10E-11,,
,0.191001,5.27E-11,,
,0.193001,5.37E-11,,
,0.195001,5.32E-11,,
,0.197001,5.19E-11,,
,0.199001,5.08E-11,,
,0.201001,5.06E-11,,
,0.203001,5.14E-11,,
,0.205001,5.31E-11,,
,0.207001,5.48E-11,,
,0.209001,5.60E-11,,
,0.211001,5.54E-11,,
,0.213001,5.35E-11,,
,0.215001,5.12E-11,,
,0.217001,5.00E-11,,
,0.219001,4.97E-11,,
,0.221001,5.05E-11,,
,0.223001,5.19E-11,,
,0.225001,5.33E-11,,
,0.227001,5.37E-11,,
,0.229001,5.25E-11,,
,0.231001,5.09E-11,,
,0.233001,4.99E-11,,
,0.235001,4.98E-11,,
,0.237001,5.04E-11,,
,0.239001,5.17E-11,,
,0.241001,5.31E-11,,
,0.243001,5.35E-11,,
,0.245001,5.23E-11,,
,0.247001,4.99E-11,,
,0.249001,4.77E-11,,
,0.251001,4.69E-11,,
,0.253001,4.71E-11,,
,0.255001,4.83E-11,,
,0.257001,4.96E-11,,
,0.259001,5.02E-11,,
,0.261001,4.90E-11,,
,0.263001,4.69E-11,,
,0.265001,4.45E-11,,
,0.267001,4.32E-11,,
,0.269001,4.27E-11,,
,0.271001,4.31E-11,,
,0.273001,4.42E-11,,
,0.275001,4.48E-11,,
,0.277001,4.43E-11,,
,0.279001,4.20E-11,,
,0.281001,3.91E-11,,
,0.283001,3.66E-11,,
,0.285001,3.55E-11,,
,0.287001,3.54E-11,,
,0.289001,3.63E-11,,
,0.291001,3.72E-11,,
,0.293001,3.75E-11,,
,0.295001,3.64E-11,,
,0.297001,3.42E-11,,
,0.299001,3.22E-11,,
,0.301001,3.14E-11,,
,0.303001,3.18E-11,,
,0.305001,3.28E-11,,
,0.307001,3.40E-11,,
,0.309001,3.47E-11,,
,0.311001,3.38E-11,,
,0.313001,3.15E-11,,
,0.315001,2.91E-11,,
,0.317001,2.78E-11,,
,0.319001,2.75E-11,,
,0.321001,2.81E-11,,
,0.323001,2.93E-11,,
,0.325001,3.06E-11,,
,0.327001,3.06E-11,,
,0.329001,2.93E-11,,
,0.331001,2.74E-11,,
,0.333001,2.62E-11,,
,0.335001,2.63E-11,,
,0.337001,2.76E-11,,
,0.339001,2.95E-11,,
,0.341001,3.10E-11,,
,0.343001,3.16E-11,,
,0.345001,3.06E-11,,
,0.347001,2.85E-11,,
,0.349001,2.65E-11,,
,0.351001,2.60E-11,,
,0.353001,2.66E-11,,
,0.355001,2.83E-11,,
,0.357001,3.02E-11,,
,0.359001,3.15E-11,,
,0.361001,3.12E-11,,
,0.363001,2.97E-11,,
,0.365001,2.83E-11,,
,0.367001,2.78E-11,,
,0.369001,2.87E-11,,
,0.371001,3.06E-11,,
,0.373001,3.28E-11,,
,0.375001,3.42E-11,,
,0.377001,3.47E-11,,
,0.379001,3.36E-11,,
,0.381001,3.22E-11,,
,0.383001,3.08E-11,,
,0.385001,3.10E-11,,
,0.387001,3.21E-11,,
,0.389001,3.43E-11,,
,0.391001,3.62E-11,,
,0.393001,3.71E-11,,
,0.395001,3.67E-11,,
,0.397001,3.53E-11,,
,0.399001,3.40E-11,,
,0.401001,3.38E-11,,
,0.403001,3.50E-11,,
,0.405001,3.70E-11,,
,0.407001,3.91E-11,,
,0.409001,4.04E-11,,
,0.411001,4.03E-11,,
,0.413001,3.87E-11,,
,0.415001,3.68E-11,,
,0.417001,3.56E-11,,
,0.419001,3.58E-11,,
,0.421001,3.70E-11,,
,0.423001,3.91E-11,,
,0.425001,4.09E-11,,
,0.427001,4.17E-11,,
,0.429001,4.11E-11,,
,0.431001,3.98E-11,,
,0.433001,3.91E-11,,
,0.435001,3.94E-11,,
,0.437001,4.06E-11,,
,0.439001,4.25E-11,,
,0.441001,4.44E-11,,
,0.443001,4.57E-11,,
,0.445001,4.53E-11,,
,0.447001,4.41E-11,,
,0.449001,4.30E-11,,
,0.451001,4.28E-11,,
,0.453001,4.36E-11,,
,0.455001,4.52E-11,,
,0.457001,4.72E-11,,
,0.459001,4.87E-11,,
,0.461001,4.87E-11,,
,0.463001,4.80E-11,,
,0.465001,4.68E-11,,
,0.467001,4.65E-11,,
,0.469001,4.71E-11,,
,0.471001,4.89E-11,,
,0.473001,5.11E-11,,
,0.475001,5.27E-11,,
,0.477001,5.27E-11,,
,0.479001,5.12E-11,,
,0.481001,4.88E-11,,
,0.483001,4.70E-11,,
,0.485001,4.66E-11,,
,0.487001,4.73E-11,,
,0.489001,4.90E-11,,
,0.491001,5.08E-11,,
,0.493001,5.14E-11,,
,0.495001,5.06E-11,,
,0.497001,4.86E-11,,
,0.499001,4.72E-11,,
,0.501001,4.67E-11,,
,0.503001,4.75E-11,,
,0.505001,4.91E-11,,
,0.507001,5.10E-11,,
,0.509001,5.20E-11,,
,0.511001,5.15E-11,,
,0.513001,4.98E-11,,
,0.515001,4.79E-11,,
,0.517001,4.67E-11,,
,0.519001,4.68E-11,,
,0.521001,4.79E-11,,
,0.523001,4.99E-11,,
,0.525001,5.15E-11,,
,0.527001,5.25E-11,,
,0.529001,5.16E-11,,
,0.531001,5.02E-11,,
,0.533001,4.89E-11,,
,0.535001,4.89E-11,,
,0.537001,4.97E-11,,
,0.539001,5.13E-11,,
,0.541001,5.27E-11,,
,0.543001,5.33E-11,,
,0.545001,5.20E-11,,
,0.547001,4.96E-11,,
,0.549001,4.72E-11,,
,0.551001,4.58E-11,,
,0.553001,4.57E-11,,
,0.555001,4.64E-11,,
,0.557001,4.74E-11,,
,0.559001,4.79E-11,,
,0.561001,4.71E-11,,
,0.563001,4.51E-11,,
,0.565001,4.28E-11,,
,0.567001,4.13E-11,,
,0.569001,4.12E-11,,
,0.571001,4.21E-11,,
,0.573001,4.36E-11,,
,0.575001,4.45E-11,,
,0.577001,4.45E-11,,
,0.579001,4.29E-11,,
,0.581001,4.07E-11,,
,0.583001,3.88E-11,,
,0.585001,3.81E-11,,
,0.587001,3.84E-11,,
,0.589001,3.95E-11,,
,0.591001,4.07E-11,,
,0.593001,4.09E-11,,
,0.595001,3.97E-11,,
,0.597001,3.75E-11,,
,0.599001,3.60E-11,,
,0.601001,3.55E-11,,
,0.603001,3.64E-11,,
,0.605001,3.79E-11,,
,0.607001,3.99E-11,,
,0.609001,4.11E-11,,
,0.611001,4.08E-11,,
,0.613001,3.91E-11,,
,0.615001,3.71E-11,,
,0.617001,3.60E-11,,
,0.619001,3.62E-11,,
,0.621001,3.77E-11,,
,0.623001,3.98E-11,,
,0.625001,4.16E-11,,
,0.627001,4.20E-11,,
,0.629001,4.11E-11,,
,0.631001,3.96E-11,,
,0.633001,3.87E-11,,
,0.635001,3.87E-11,,
,0.637001,4.00E-11,,
,0.639001,4.22E-11,,
,0.641001,4.43E-11,,
,0.643001,4.51E-11,,
,0.645001,4.42E-11,,
,0.647001,4.21E-11,,
,0.649001,4.02E-11,,
,0.651001,3.93E-11,,
,0.653001,3.98E-11,,
,0.655001,4.11E-11,,
,0.657001,4.27E-11,,
,0.659001,4.40E-11,,
,0.661001,4.39E-11,,
,0.663001,4.28E-11,,
,0.665001,4.12E-11,,
,0.667001,4.09E-11,,
,0.669001,4.16E-11,,
,0.671001,4.38E-11,,
,0.673001,4.62E-11,,
,0.675001,4.83E-11,,
,0.677001,4.89E-11,,
,0.679001,4.79E-11,,
,0.681001,4.62E-11,,
,0.683001,4.48E-11,,
,0.685001,4.47E-11,,
,0.687001,4.59E-11,,
,0.689001,4.79E-11,,
,0.691001,5.00E-11,,
,0.693001,5.08E-11,,
,0.695001,5.01E-11,,
,0.697001,4.83E-11,,
,0.699001,4.69E-11,,
,0.701001,4.64E-11,,
,0.703001,4.71E-11,,
,0.705001,4.86E-11,,
,0.707001,5.05E-11,,
,0.709001,5.17E-11,,
,0.711001,5.13E-11,,
,0.713001,4.91E-11,,
,0.715001,4.69E-11,,
,0.717001,4.56E-11,,
,0.719001,4.58E-11,,
,0.721001,4.70E-11,,
,0.723001,4.88E-11,,
,0.725001,5.06E-11,,
,0.727001,5.14E-11,,
,0.729001,5.09E-11,,
,0.731001,4.95E-11,,
,0.733001,4.86E-11,,
,0.735001,4.86E-11,,
,0.737001,4.98E-11,,
,0.739001,5.15E-11,,
,0.741001,5.34E-11,,
,0.743001,5.40E-11,,
,0.745001,5.29E-11,,
,0.747001,5.04E-11,,
,0.749001,4.84E-11,,
,0.751001,4.73E-11,,
,0.753001,4.75E-11,,
,0.755001,4.86E-11,,
,0.757001,5.00E-11,,
,0.759001,5.09E-11,,
,0.761001,5.04E-11,,
,0.763001,4.89E-11,,
,0.765001,4.73E-11,,
,0.767001,4.67E-11,,
,0.769001,4.71E-11,,
,0.771001,4.84E-11,,
,0.773001,4.99E-11,,
,0.775001,5.10E-11,,
,0.777001,5.04E-11,,
,0.779001,4.83E-11,,
,0.781001,4.54E-11,,
,0.783001,4.30E-11,,
,0.785001,4.22E-11,,
,0.787001,4.25E-11,,
,0.789001,4.40E-11,,
,0.791001,4.53E-11,,
,0.793001,4.57E-11,,
,0.795001,4.45E-11,,
,0.797001,4.27E-11,,
,0.799001,4.10E-11,,
,0.801001,4.02E-11,,
,0.803001,4.06E-11,,
,0.805001,4.18E-11,,
,0.807001,4.33E-11,,
,0.809001,4.40E-11,,
,0.811001,4.30E-11,,
,0.813001,4.06E-11,,
,0.815001,3.80E-11,,
,0.817001,3.63E-11,,
,0.819001,3.58E-11,,
,0.821001,3.66E-11,,
,0.823001,3.81E-11,,
,0.825001,3.96E-11,,
,0.827001,3.98E-11,,
,0.829001,3.87E-11,,
,0.831001,3.68E-11,,
,0.833001,3.53E-11,,
,0.835001,3.48E-11,,
,0.837001,3.55E-11,,
,0.839001,3.69E-11,,
,0.841001,3.84E-11,,
,0.843001,3.86E-11,,
,0.845001,3.74E-11,,
,0.847001,3.48E-11,,
,0.849001,3.24E-11,,
,0.851001,3.12E-11,,
,0.853001,3.14E-11,,
,0.855001,3.28E-11,,
,0.857001,3.44E-11,,
,0.859001,3.56E-11,,
,0.861001,3.53E-11,,
,0.863001,3.38E-11,,
,0.865001,3.22E-11,,
,0.867001,3.15E-11,,
,0.869001,3.22E-11,,
,0.871001,3.37E-11,,
,0.873001,3.56E-11,,
,0.875001,3.70E-11,,
,0.877001,3.71E-11,,
,0.879001,3.56E-11,,
,0.881001,3.34E-11,,
,0.883001,3.15E-11,,
,0.885001,3.09E-11,,
,0.887001,3.15E-11,,
,0.889001,3.30E-11,,
,0.891001,3.47E-11,,
,0.893001,3.53E-11,,
,0.895001,3.47E-11,,
,0.897001,3.33E-11,,
,0.899001,3.21E-11,,
,0.901001,3.20E-11,,
,0.903001,3.27E-11,,
,0.905001,3.45E-11,,
,0.907001,3.60E-11,,
,0.909001,3.73E-11,,
,0.911001,3.65E-11,,
,0.913001,3.49E-11,,
,0.915001,3.28E-11,,
,0.917001,3.19E-11,,
,0.919001,3.20E-11,,
,0.921001,3.27E-11,,
,0.923001,3.45E-11,,
,0.925001,3.60E-11,,
,0.927001,3.66E-11,,
,0.929001,3.54E-11,,
,0.931001,3.36E-11,,
,0.933001,3.23E-11,,
,0.935001,3.21E-11,,
,0.937001,3.31E-11,,
,0.939001,3.50E-11,,
,0.941001,3.65E-11,,
,0.943001,3.67E-11,,
,0.945001,3.53E-11,,
,0.947001,3.28E-11,,
,0.949001,3.06E-11,,
,0.951001,2.93E-11,,
,0.953001,2.95E-11,,
,0.955001,3.10E-11,,
,0.957001,3.28E-11,,
,0.959001,3.42E-11,,
,0.961001,3.40E-11,,
,0.963001,3.27E-11,,
,0.965001,3.11E-11,,
,0.967001,3.04E-11,,
,0.969001,3.05E-11,,
,0.971001,3.14E-11,,
,0.973001,3.28E-11,,
,0.975001,3.40E-11,,
,0.977001,3.37E-11,,
,0.979001,3.18E-11,,
,0.981001,2.91E-11,,
,0.983001,2.71E-11,,
,0.985001,2.65E-11,,
,0.987001,2.70E-11,,
,0.989001,2.84E-11,,
,0.991001,2.99E-11,,
,0.993001,3.05E-11,,
,0.995001,2.96E-11,,
,0.997001,2.78E-11,,
,0.999001,2.61E-11,,
,1.001001,2.57E-11,,
,1.003001,2.65E-11,,
,1.005001,2.85E-11,,
,1.007001,3.05E-11,,
,1.009001,3.16E-11,,
,1.011001,3.11E-11,,
,1.013001,2.91E-11,,
,1.015001,2.67E-11,,
,1.017001,2.50E-11,,
,1.019001,2.47E-11,,
,1.021001,2.55E-11,,
,1.023001,2.72E-11,,
,1.025001,2.85E-11,,
,1.027001,2.85E-11,,
,1.029001,2.70E-11,,
,1.031001,2.51E-11,,
,1.033001,2.40E-11,,
,1.035001,2.41E-11,,
,1.037001,2.52E-11,,
,1.039001,2.69E-11,,
,1.041001,2.86E-11,,
,1.043001,2.94E-11,,
,1.045001,2.84E-11,,
,1.047001,2.65E-11,,
,1.049001,2.46E-11,,
,1.051001,2.38E-11,,
,1.053001,2.41E-11,,
,1.055001,2.57E-11,,
,1.057001,2.77E-11,,
,1.059001,2.91E-11,,
,1.061001,2.92E-11,,
,1.063001,2.81E-11,,
,1.065001,2.69E-11,,
,1.067001,2.67E-11,,
,1.069001,2.78E-11,,
,1.071001,3.00E-11,,
,1.073001,3.24E-11,,
,1.075001,3.43E-11,,
,1.077001,3.51E-11,,
,1.079001,3.42E-11,,
,1.081001,3.26E-11,,
,1.083001,3.12E-11,,
,1.085001,3.11E-11,,
,1.087001,3.19E-11,,
,1.089001,3.33E-11,,
,1.091001,3.47E-11,,
,1.093001,3.53E-11,,
,1.095001,3.44E-11,,
,1.097001,3.26E-11,,
,1.099001,3.09E-11,,
,1.101001,3.01E-11,,
,1.103001,3.06E-11,,
,1.105001,3.20E-11,,
,1.107001,3.37E-11,,
,1.109001,3.47E-11,,
,1.111001,3.41E-11,,
,1.113001,3.23E-11,,
,1.115001,3.01E-11,,
,1.117001,2.89E-11,,
,1.119001,2.87E-11,,
,1.121001,2.97E-11,,
,1.123001,3.12E-11,,
,1.125001,3.24E-11,,
,1.127001,3.26E-11,,
,1.129001,3.14E-11,,
,1.131001,2.97E-11,,
,1.133001,2.84E-11,,
,1.135001,2.83E-11,,
,1.137001,2.94E-11,,
,1.139001,3.10E-11,,
,1.141001,3.25E-11,,
,1.143001,3.28E-11,,
,1.145001,3.18E-11,,
,1.147001,2.95E-11,,
,1.149001,2.74E-11,,
,1.151001,2.63E-11,,
,1.153001,2.67E-11,,
,1.155001,2.83E-11,,
,1.157001,3.01E-11,,
,1.159001,3.13E-11,,
,1.161001,3.11E-11,,
,1.163001,2.97E-11,,
,1.165001,2.80E-11,,
,1.167001,2.72E-11,,
,1.169001,2.79E-11,,
,1.171001,2.96E-11,,
,1.173001,3.20E-11,,
,1.175001,3.37E-11,,
,1.177001,3.40E-11,,
,1.179001,3.25E-11,,
,1.181001,3.02E-11,,
,1.183001,2.86E-11,,
,1.185001,2.80E-11,,
,1.187001,2.87E-11,,
,1.189001,3.02E-11,,
,1.191001,3.21E-11,,
,1.193001,3.28E-11,,
,1.195001,3.18E-11,,
,1.197001,2.96E-11,,
,1.199001,2.77E-11,,
,1.201001,2.70E-11,,
,1.203001,2.75E-11,,
,1.205001,2.90E-11,,
,1.207001,3.07E-11,,
,1.209001,3.19E-11,,
,1.211001,3.13E-11,,
,1.213001,2.94E-11,,
,1.215001,2.71E-11,,
,1.217001,2.55E-11,,
,1.219001,2.50E-11,,
,1.221001,2.55E-11,,
,1.223001,2.69E-11,,
,1.225001,2.82E-11,,
,1.227001,2.84E-11,,
,1.229001,2.72E-11,,
,1.231001,2.57E-11,,
,1.233001,2.47E-11,,
,1.235001,2.48E-11,,
,1.237001,2.58E-11,,
,1.239001,2.77E-11,,
,1.241001,2.97E-11,,
,1.243001,3.06E-11,,
,1.245001,2.99E-11,,
,1.247001,2.80E-11,,
,1.249001,2.62E-11,,
,1.251001,2.53E-11,,
,1.253001,2.57E-11,,
,1.255001,2.75E-11,,
,1.257001,2.93E-11,,
,1.259001,3.08E-11,,
,1.261001,3.07E-11,,
,1.263001,2.95E-11,,
,1.265001,2.77E-11,,
,1.267001,2.68E-11,,
,1.269001,2.77E-11,,
,1.271001,2.96E-11,,
,1.273001,3.23E-11,,
,1.275001,3.42E-11,,
,1.277001,3.49E-11,,
,1.279001,3.37E-11,,
,1.281001,3.21E-11,,
,1.283001,3.09E-11,,
,1.285001,3.10E-11,,
,1.287001,3.21E-11,,
,1.289001,3.39E-11,,
,1.291001,3.57E-11,,
,1.293001,3.67E-11,,
,1.295001,3.63E-11,,
,1.297001,3.50E-11,,
,1.299001,3.38E-11,,
,1.301001,3.37E-11,,
,1.303001,3.45E-11,,
,1.305001,3.62E-11,,
,1.307001,3.81E-11,,
,1.309001,3.95E-11,,
,1.311001,3.91E-11,,
,1.313001,3.69E-11,,
,1.315001,3.44E-11,,
,1.317001,3.29E-11,,
,1.319001,3.28E-11,,
,1.321001,3.39E-11,,
,1.323001,3.57E-11,,
,1.325001,3.73E-11,,
,1.327001,3.78E-11,,
,1.329001,3.68E-11,,
,1.331001,3.52E-11,,
,1.333001,3.42E-11,,
,1.335001,3.43E-11,,
,1.337001,3.60E-11,,
,1.339001,3.81E-11,,
,1.341001,4.03E-11,,
,1.343001,4.11E-11,,
,1.345001,4.02E-11,,
,1.347001,3.82E-11,,
,1.349001,3.66E-11,,
,1.351001,3.59E-11,,
,1.353001,3.63E-11,,
,1.355001,3.75E-11,,
,1.357001,3.94E-11,,
,1.359001,4.09E-11,,
,1.361001,4.09E-11,,
,1.363001,4.00E-11,,
,1.365001,3.86E-11,,
,1.367001,3.82E-11,,
,1.369001,3.88E-11,,
,1.371001,4.12E-11,,
,1.373001,4.36E-11,,
,1.375001,4.56E-11,,
,1.377001,4.58E-11,,
,1.379001,4.46E-11,,
,1.381001,4.25E-11,,
,1.383001,4.08E-11,,
,1.385001,4.03E-11,,
,1.387001,4.09E-11,,
,1.389001,4.23E-11,,
,1.391001,4.38E-11,,
,1.393001,4.46E-11,,
,1.395001,4.40E-11,,
,1.397001,4.25E-11,,
,1.399001,4.12E-11,,
,1.401001,4.12E-11,,
,1.403001,4.25E-11,,
,1.405001,4.46E-11,,
,1.407001,4.69E-11,,
,1.409001,4.84E-11,,
,1.411001,4.83E-11,,
,1.413001,4.69E-11,,
,1.415001,4.48E-11,,
,1.417001,4.37E-11,,
,1.419001,4.33E-11,,
,1.421001,4.44E-11,,
,1.423001,4.57E-11,,
,1.425001,4.70E-11,,
,1.427001,4.68E-11,,
,1.429001,4.54E-11,,
,1.431001,4.35E-11,,
,1.433001,4.21E-11,,
,1.435001,4.20E-11,,
,1.437001,4.28E-11,,
,1.439001,4.45E-11,,
,1.441001,4.59E-11,,
,1.443001,4.65E-11,,
,1.445001,4.53E-11,,
,1.447001,4.30E-11,,
,1.449001,4.06E-11,,
,1.451001,3.93E-11,,
,1.453001,3.94E-11,,
,1.455001,4.04E-11,,
,1.457001,4.16E-11,,
,1.459001,4.22E-11,,
,1.461001,4.16E-11,,
,1.463001,3.98E-11,,
,1.465001,3.77E-11,,
,1.467001,3.64E-11,,
,1.469001,3.66E-11,,
,1.471001,3.79E-11,,
,1.473001,3.96E-11,,
,1.475001,4.08E-11,,
,1.477001,4.08E-11,,
,1.479001,3.91E-11,,
,1.481001,3.64E-11,,
,1.483001,3.40E-11,,
,1.485001,3.28E-11,,
,1.487001,3.33E-11,,
,1.489001,3.43E-11,,
,1.491001,3.53E-11,,
,1.493001,3.51E-11,,
,1.495001,3.38E-11,,
,1.497001,3.16E-11,,
,1.499001,2.95E-11,,
,1.501001,2.81E-11,,
,1.503001,2.80E-11,,
,1.505001,2.92E-11,,
,1.507001,3.06E-11,,
,1.509001,3.12E-11,,
,1.511001,2.99E-11,,
,1.513001,2.71E-11,,
,1.515001,2.41E-11,,
,1.517001,2.21E-11,,
,1.519001,2.17E-11,,
,1.521001,2.23E-11,,
,1.523001,2.35E-11,,
,1.525001,2.42E-11,,
,1.527001,2.36E-11,,
,1.529001,2.19E-11,,
,1.531001,1.92E-11,,
,1.533001,1.74E-11,,
,1.535001,1.66E-11,,
,1.537001,1.77E-11,,
,1.539001,1.91E-11,,
,1.541001,2.07E-11,,
,1.543001,2.09E-11,,
,1.545001,2.01E-11,,
,1.547001,1.75E-11,,
,1.549001,1.53E-11,,
,1.551001,1.38E-11,,
,1.553001,1.40E-11,,
,1.555001,1.50E-11,,
,1.557001,1.66E-11,,
,1.559001,1.76E-11,,
,1.561001,1.73E-11,,
,1.563001,1.58E-11,,
,1.565001,1.41E-11,,
,1.567001,1.31E-11,,
,1.569001,1.31E-11,,
,1.571001,1.39E-11,,
,1.573001,1.53E-11,,
,1.575001,1.64E-11,,
,1.577001,1.64E-11,,
,1.579001,1.50E-11,,
,1.581001,1.29E-11,,
,1.583001,1.09E-11,,
,1.585001,1.05E-11,,
,1.587001,1.11E-11,,
,1.589001,1.30E-11,,
,1.591001,1.46E-11,,
,1.593001,1.54E-11,,
,1.595001,1.47E-11,,
,1.597001,1.33E-11,,
,1.599001,1.21E-11,,
,1.601001,1.20E-11,,
,1.603001,1.28E-11,,
,1.605001,1.46E-11,,
,1.607001,1.64E-11,,
,1.609001,1.75E-11,,
,1.611001,1.69E-11,,
,1.613001,1.51E-11,,
,1.615001,1.33E-11,,
,1.617001,1.22E-11,,
,1.619001,1.22E-11,,
,1.621001,1.31E-11,,
,1.623001,1.45E-11,,
,1.625001,1.55E-11,,
,1.627001,1.58E-11,,
,1.629001,1.45E-11,,
,1.631001,1.26E-11,,
,1.633001,1.09E-11,,
,1.635001,1.06E-11,,
,1.637001,1.16E-11,,
,1.639001,1.34E-11,,
,1.641001,1.49E-11,,
,1.643001,1.54E-11,,
,1.645001,1.45E-11,,
,1.647001,1.28E-11,,
,1.649001,1.12E-11,,
,1.651001,1.10E-11,,
,1.653001,1.18E-11,,
,1.655001,1.34E-11,,
,1.657001,1.50E-11,,
,1.659001,1.61E-11,,
,1.661001,1.56E-11,,
,1.663001,1.41E-11,,
,1.665001,1.26E-11,,
,1.667001,1.19E-11,,
,1.669001,1.24E-11,,
,1.671001,1.36E-11,,
,1.673001,1.53E-11,,
,1.675001,1.66E-11,,
,1.677001,1.69E-11,,
,1.679001,1.60E-11,,
,1.681001,1.43E-11,,
,1.683001,1.32E-11,,
,1.685001,1.30E-11,,
,1.687001,1.39E-11,,
,1.689001,1.51E-11,,
,1.691001,1.65E-11,,
,1.693001,1.68E-11,,
,1.695001,1.58E-11,,
,1.697001,1.40E-11,,
,1.699001,1.25E-11,,
,1.701001,1.23E-11,,
,1.703001,1.32E-11,,
,1.705001,1.50E-11,,
,1.707001,1.70E-11,,
,1.709001,1.87E-11,,
,1.711001,1.84E-11,,
,1.713001,1.72E-11,,
,1.715001,1.53E-11,,
,1.717001,1.48E-11,,
,1.719001,1.51E-11,,
,1.721001,1.63E-11,,
,1.723001,1.76E-11,,
,1.725001,1.87E-11,,
,1.727001,1.85E-11,,
,1.729001,1.73E-11,,
,1.731001,1.54E-11,,
,1.733001,1.46E-11,,
,1.735001,1.49E-11,,
,1.737001,1.64E-11,,
,1.739001,1.82E-11,,
,1.741001,2.03E-11,,
,1.743001,2.12E-11,,
,1.745001,2.08E-11,,
,1.747001,1.90E-11,,
,1.749001,1.74E-11,,
,1.751001,1.64E-11,,
,1.753001,1.69E-11,,
,1.755001,1.84E-11,,
,1.757001,2.05E-11,,
,1.759001,2.20E-11,,
,1.761001,2.21E-11,,
,1.763001,2.09E-11,,
,1.765001,1.94E-11,,
,1.767001,1.91E-11,,
,1.769001,1.98E-11,,
,1.771001,2.20E-11,,
,1.773001,2.42E-11,,
,1.775001,2.65E-11,,
,1.777001,2.70E-11,,
,1.779001,2.62E-11,,
,1.781001,2.47E-11,,
,1.783001,2.35E-11,,
,1.785001,2.34E-11,,
,1.787001,2.42E-11,,
,1.789001,2.66E-11,,
,1.791001,2.93E-11,,
,1.793001,3.14E-11,,
,1.795001,3.20E-11,,
,1.797001,3.14E-11,,
,1.799001,3.11E-11,,
,1.801001,3.15E-11,,
,1.803001,3.31E-11,,
,1.805001,3.56E-11,,
,1.807001,3.82E-11,,
,1.809001,4.00E-11,,
,1.811001,3.98E-11,,
,1.813001,3.82E-11,,
,1.815001,3.60E-11,,
,1.817001,3.47E-11,,
,1.819001,3.47E-11,,
,1.821001,3.56E-11,,
,1.823001,3.70E-11,,
,1.825001,3.80E-11,,
,1.827001,3.77E-11,,
,1.829001,3.64E-11,,
,1.831001,3.44E-11,,
,1.833001,3.34E-11,,
,1.835001,3.35E-11,,
,1.837001,3.48E-11,,
,1.839001,3.66E-11,,
,1.841001,3.84E-11,,
,1.843001,3.92E-11,,
,1.845001,3.83E-11,,
,1.847001,3.62E-11,,
,1.849001,3.41E-11,,
,1.851001,3.35E-11,,
,1.853001,3.42E-11,,
,1.855001,3.62E-11,,
,1.857001,3.84E-11,,
,1.859001,3.99E-11,,
,1.861001,4.03E-11,,
,1.863001,3.97E-11,,
,1.865001,3.89E-11,,
,1.867001,3.88E-11,,
,1.869001,3.97E-11,,
,1.871001,4.16E-11,,
,1.873001,4.38E-11,,
,1.875001,4.53E-11,,
,1.877001,4.51E-11,,
,1.879001,4.31E-11,,
,1.881001,4.06E-11,,
,1.883001,3.84E-11,,
,1.885001,3.74E-11,,
,1.887001,3.77E-11,,
,1.889001,3.91E-11,,
,1.891001,4.07E-11,,
,1.893001,4.11E-11,,
,1.895001,3.99E-11,,
,1.897001,3.78E-11,,
,1.899001,3.59E-11,,
,1.901001,3.53E-11,,
,1.903001,3.56E-11,,
,1.905001,3.71E-11,,
,1.907001,3.85E-11,,
,1.909001,3.96E-11,,
,1.911001,3.89E-11,,
,1.913001,3.72E-11,,
,1.915001,3.53E-11,,
,1.917001,3.44E-11,,
,1.919001,3.54E-11,,
,1.921001,3.77E-11,,
,1.923001,4.06E-11,,
,1.925001,4.27E-11,,
,1.927001,4.33E-11,,
,1.929001,4.27E-11,,
,1.931001,4.16E-11,,
,1.933001,4.12E-11,,
,1.935001,4.20E-11,,
,1.937001,4.37E-11,,
,1.939001,4.61E-11,,
,1.941001,4.83E-11,,
,1.943001,4.93E-11,,
,1.945001,4.83E-11,,
,1.947001,4.64E-11,,
,1.949001,4.43E-11,,
,1.951001,4.36E-11,,
,1.953001,4.38E-11,,
,1.955001,4.52E-11,,
,1.957001,4.67E-11,,
,1.959001,4.76E-11,,
,1.961001,4.71E-11,,
,1.963001,4.52E-11,,
,1.965001,4.29E-11,,
,1.967001,4.17E-11,,
,1.969001,4.20E-11,,
,1.971001,4.35E-11,,
,1.973001,4.54E-11,,
,1.975001,4.68E-11,,
,1.977001,4.67E-11,,
,1.979001,4.53E-11,,
,1.981001,4.33E-11,,
,1.983001,4.21E-11,,
,1.985001,4.16E-11,,
,1.987001,4.26E-11,,
,1.989001,4.45E-11,,
,1.991001,4.66E-11,,
,1.993001,4.75E-11,,
,1.995001,4.70E-11,,
,1.997001,4.57E-11,,
,1.999001,4.46E-11,,
,2.001001,4.46E-11,,
,2.003001,4.57E-11,,
,2.005001,4.79E-11,,
,2.007001,5.00E-11,,
,2.009001,5.16E-11,,
,2.011001,5.15E-11,,
,2.013001,5.04E-11,,
,2.015001,4.87E-11,,
,2.017001,4.80E-11,,
,2.019001,4.82E-11,,
,2.021001,4.95E-11,,
,2.023001,5.11E-11,,
,2.025001,5.25E-11,,
,2.027001,5.27E-11,,
,2.029001,5.16E-11,,
,2.031001,5.00E-11,,
,2.033001,4.89E-11,,
,2.035001,4.91E-11,,
,2.037001,5.02E-11,,
,2.039001,5.21E-11,,
,2.041001,5.40E-11,,
,2.043001,5.48E-11,,
,2.045001,5.42E-11,,
,2.047001,5.25E-11,,
,2.049001,5.08E-11,,
,2.051001,5.02E-11,,
,2.053001,5.05E-11,,
,2.055001,5.19E-11,,
,2.057001,5.34E-11,,
,2.059001,5.45E-11,,
,2.061001,5.41E-11,,
,2.063001,5.24E-11,,
,2.065001,5.05E-11,,
,2.067001,4.96E-11,,
,2.069001,4.96E-11,,
,2.071001,5.05E-11,,
,2.073001,5.21E-11,,
,2.075001,5.38E-11,,
,2.077001,5.41E-11,,
,2.079001,5.26E-11,,
,2.081001,5.03E-11,,
,2.083001,4.86E-11,,
,2.085001,4.80E-11,,
,2.087001,4.83E-11,,
,2.089001,4.95E-11,,
,2.091001,5.05E-11,,
,2.093001,5.08E-11,,
,2.095001,4.94E-11,,
,2.097001,4.72E-11,,
,2.099001,4.52E-11,,
,2.101001,4.41E-11,,
,2.103001,4.42E-11,,
,2.105001,4.53E-11,,
,2.107001,4.66E-11,,
,2.109001,4.72E-11,,
,2.111001,4.61E-11,,
,2.113001,4.39E-11,,
,2.115001,4.11E-11,,
,2.117001,3.93E-11,,
,2.119001,3.87E-11,,
,2.121001,3.98E-11,,
,2.123001,4.13E-11,,
,2.125001,4.25E-11,,
,2.127001,4.24E-11,,
,2.129001,4.12E-11,,
,2.131001,3.94E-11,,
,2.133001,3.81E-11,,
,2.135001,3.80E-11,,
,2.137001,3.91E-11,,
,2.139001,4.09E-11,,
,2.141001,4.27E-11,,
,2.143001,4.36E-11,,
,2.145001,4.29E-11,,
,2.147001,4.12E-11,,
,2.149001,3.94E-11,,
,2.151001,3.84E-11,,
,2.153001,3.86E-11,,
,2.155001,4.01E-11,,
,2.157001,4.20E-11,,
,2.159001,4.31E-11,,
,2.161001,4.27E-11,,
,2.163001,4.10E-11,,
,2.165001,3.89E-11,,
,2.167001,3.82E-11,,
,2.169001,3.86E-11,,
,2.171001,4.03E-11,,
,2.173001,4.23E-11,,
,2.175001,4.38E-11,,
,2.177001,4.37E-11,,
,2.179001,4.20E-11,,
,2.181001,3.99E-11,,
,2.183001,3.88E-11,,
,2.185001,3.87E-11,,
,2.187001,3.99E-11,,
,2.189001,4.15E-11,,
,2.191001,4.33E-11,,
,2.193001,4.41E-11,,
,2.195001,4.35E-11,,
,2.197001,4.18E-11,,
,2.199001,4.01E-11,,
,2.201001,3.94E-11,,
,2.203001,4.00E-11,,
,2.205001,4.15E-11,,
,2.207001,4.33E-11,,
,2.209001,4.43E-11,,
,2.211001,4.39E-11,,
,2.213001,4.22E-11,,
,2.215001,4.00E-11,,
,2.217001,3.87E-11,,
,2.219001,3.86E-11,,
,2.221001,3.98E-11,,
,2.223001,4.17E-11,,
,2.225001,4.36E-11,,
,2.227001,4.44E-11,,
,2.229001,4.38E-11,,
,2.231001,4.25E-11,,
,2.233001,4.13E-11,,
,2.235001,4.15E-11,,
,2.237001,4.27E-11,,
,2.239001,4.47E-11,,
,2.241001,4.67E-11,,
,2.243001,4.79E-11,,
,2.245001,4.72E-11,,
,2.247001,4.57E-11,,
,2.249001,4.42E-11,,
,2.251001,4.41E-11,,
,2.253001,4.46E-11,,
,2.255001,4.59E-11,,
,2.257001,4.75E-11,,
,2.259001,4.87E-11,,
,2.261001,4.86E-11,,
,2.263001,4.72E-11,,
,2.265001,4.57E-11,,
,2.267001,4.50E-11,,
,2.269001,4.55E-11,,
,2.271001,4.70E-11,,
,2.273001,4.93E-11,,
,2.275001,5.13E-11,,
,2.277001,5.20E-11,,
,2.279001,5.14E-11,,
,2.281001,5.00E-11,,
,2.283001,4.96E-11,,
,2.285001,5.01E-11,,
,2.287001,5.16E-11,,
,2.289001,5.35E-11,,
,2.291001,5.53E-11,,
,2.293001,5.60E-11,,
,2.295001,5.53E-11,,
,2.297001,5.38E-11,,
,2.299001,5.24E-11,,
,2.301001,5.19E-11,,
,2.303001,5.27E-11,,
,2.305001,5.44E-11,,
,2.307001,5.61E-11,,
,2.309001,5.69E-11,,
,2.311001,5.60E-11,,
,2.313001,5.42E-11,,
,2.315001,5.25E-11,,
,2.317001,5.18E-11,,
,2.319001,5.20E-11,,
,2.321001,5.32E-11,,
,2.323001,5.44E-11,,
,2.325001,5.55E-11,,
,2.327001,5.50E-11,,
,2.329001,5.33E-11,,
,2.331001,5.10E-11,,
,2.333001,4.89E-11,,
,2.335001,4.81E-11,,
,2.337001,4.84E-11,,
,2.339001,4.95E-11,,
,2.341001,5.08E-11,,
,2.343001,5.09E-11,,
,2.345001,4.97E-11,,
,2.347001,4.76E-11,,
,2.349001,4.56E-11,,
,2.351001,4.47E-11,,
,2.353001,4.46E-11,,
,2.355001,4.58E-11,,
,2.357001,4.73E-11,,
,2.359001,4.81E-11,,
,2.361001,4.73E-11,,
,2.363001,4.51E-11,,
,2.365001,4.28E-11,,
,2.367001,4.12E-11,,
,2.369001,4.10E-11,,
,2.371001,4.17E-11,,
,2.373001,4.32E-11,,
,2.375001,4.40E-11,,
,2.377001,4.36E-11,,
,2.379001,4.17E-11,,
,2.381001,3.97E-11,,
,2.383001,3.81E-11,,
,2.385001,3.78E-11,,
,2.387001,3.87E-11,,
,2.389001,4.04E-11,,
,2.391001,4.17E-11,,
,2.393001,4.17E-11,,
,2.395001,4.04E-11,,
,2.397001,3.83E-11,,
,2.399001,3.64E-11,,
,2.401001,3.56E-11,,
,2.403001,3.63E-11,,
,2.405001,3.79E-11,,
,2.407001,4.00E-11,,
,2.409001,4.12E-11,,
,2.411001,4.11E-11,,
,2.413001,3.92E-11,,
,2.415001,3.71E-11,,
,2.417001,3.57E-11,,
,2.419001,3.57E-11,,
,2.421001,3.68E-11,,
,2.423001,3.85E-11,,
,2.425001,3.97E-11,,
,2.427001,3.97E-11,,
,2.429001,3.82E-11,,
,2.431001,3.63E-11,,
,2.433001,3.53E-11,,
,2.435001,3.59E-11,,
,2.437001,3.79E-11,,
,2.439001,4.03E-11,,
,2.441001,4.26E-11,,
,2.443001,4.40E-11,,
,2.445001,4.38E-11,,
,2.447001,4.26E-11,,
,2.449001,4.10E-11,,
,2.451001,4.03E-11,,
,2.453001,4.06E-11,,
,2.455001,4.18E-11,,
,2.457001,4.30E-11,,
,2.459001,4.35E-11,,
,2.461001,4.21E-11,,
,2.463001,3.94E-11,,
,2.465001,3.65E-11,,
,2.467001,3.48E-11,,
,2.469001,3.43E-11,,
,2.471001,3.51E-11,,
,2.473001,3.65E-11,,
,2.475001,3.72E-11,,
,2.477001,3.67E-11,,
,2.479001,3.50E-11,,
,2.481001,3.29E-11,,
,2.483001,3.12E-11,,
,2.485001,3.05E-11,,
,2.487001,3.06E-11,,
,2.489001,3.14E-11,,
,2.491001,3.23E-11,,
,2.493001,3.22E-11,,
,2.495001,3.10E-11,,
,2.497001,2.86E-11,,
,2.499001,2.69E-11,,
,2.501001,2.60E-11,,
,2.503001,2.65E-11,,
,2.505001,2.79E-11,,
,2.507001,2.98E-11,,
,2.509001,3.11E-11,,
,2.511001,3.10E-11,,
,2.513001,2.95E-11,,
,2.515001,2.78E-11,,
,2.517001,2.69E-11,,
,2.519001,2.71E-11,,
,2.521001,2.81E-11,,
,2.523001,2.97E-11,,
,2.525001,3.09E-11,,
,2.527001,3.07E-11,,
,2.529001,2.89E-11,,
,2.531001,2.64E-11,,
,2.533001,2.49E-11,,
,2.535001,2.45E-11,,
,2.537001,2.54E-11,,
,2.539001,2.70E-11,,
,2.541001,2.86E-11,,
,2.543001,2.92E-11,,
,2.545001,2.79E-11,,
,2.547001,2.57E-11,,
,2.549001,2.38E-11,,
,2.551001,2.29E-11,,
,2.553001,2.34E-11,,
,2.555001,2.45E-11,,
,2.557001,2.62E-11,,
,2.559001,2.69E-11,,
,2.561001,2.65E-11,,
,2.563001,2.50E-11,,
,2.565001,2.34E-11,,
,2.567001,2.28E-11,,
,2.569001,2.33E-11,,
,2.571001,2.49E-11,,
,2.573001,2.69E-11,,
,2.575001,2.87E-11,,
,2.577001,2.93E-11,,
,2.579001,2.83E-11,,
,2.581001,2.68E-11,,
,2.583001,2.60E-11,,
,2.585001,2.63E-11,,
,2.587001,2.78E-11,,
,2.589001,2.97E-11,,
,2.591001,3.16E-11,,
,2.593001,3.25E-11,,
,2.595001,3.18E-11,,
,2.597001,2.98E-11,,
,2.599001,2.80E-11,,
,2.601001,2.79E-11,,
,2.603001,2.91E-11,,
,2.605001,3.13E-11,,
,2.607001,3.36E-11,,
,2.609001,3.53E-11,,
,2.611001,3.54E-11,,
,2.613001,3.41E-11,,
,2.615001,3.24E-11,,
,2.617001,3.13E-11,,
,2.619001,3.16E-11,,
,2.621001,3.30E-11,,
,2.623001,3.50E-11,,
,2.625001,3.63E-11,,
,2.627001,3.65E-11,,
,2.629001,3.51E-11,,
,2.631001,3.33E-11,,
,2.633001,3.21E-11,,
,2.635001,3.25E-11,,
,2.637001,3.42E-11,,
,2.639001,3.67E-11,,
,2.641001,3.93E-11,,
,2.643001,4.08E-11,,
,2.645001,4.06E-11,,
,2.647001,3.89E-11,,
,2.649001,3.74E-11,,
,2.651001,3.73E-11,,
,2.653001,3.85E-11,,
,2.655001,4.08E-11,,
,2.657001,4.28E-11,,
,2.659001,4.42E-11,,
,2.661001,4.40E-11,,
,2.663001,4.27E-11,,
,2.665001,4.13E-11,,
,2.667001,4.11E-11,,
,2.669001,4.22E-11,,
,2.671001,4.44E-11,,
,2.673001,4.68E-11,,
,2.675001,4.89E-11,,
,2.677001,4.95E-11,,
,2.679001,4.85E-11,,
,2.681001,4.67E-11,,
,2.683001,4.54E-11,,
,2.685001,4.52E-11,,
,2.687001,4.58E-11,,
,2.689001,4.72E-11,,
,2.691001,4.88E-11,,
,2.693001,4.96E-11,,
,2.695001,4.88E-11,,
,2.697001,4.73E-11,,
,2.699001,4.59E-11,,
,2.701001,4.57E-11,,
,2.703001,4.64E-11,,
,2.705001,4.83E-11,,
,2.707001,5.02E-11,,
,2.709001,5.14E-11,,
,2.711001,5.12E-11,,
,2.713001,4.99E-11,,
,2.715001,4.83E-11,,
,2.717001,4.73E-11,,
,2.719001,4.74E-11,,
,2.721001,4.86E-11,,
,2.723001,5.00E-11,,
,2.725001,5.11E-11,,
,2.727001,5.11E-11,,
,2.729001,4.96E-11,,
,2.731001,4.74E-11,,
,2.733001,4.59E-11,,
,2.735001,4.59E-11,,
,2.737001,4.71E-11,,
,2.739001,4.89E-11,,
,2.741001,5.08E-11,,
,2.743001,5.16E-11,,
,2.745001,5.09E-11,,
,2.747001,4.88E-11,,
,2.749001,4.68E-11,,
,2.751001,4.58E-11,,
,2.753001,4.62E-11,,
,2.755001,4.73E-11,,
,2.757001,4.86E-11,,
,2.759001,4.91E-11,,
,2.761001,4.86E-11,,
,2.763001,4.70E-11,,
,2.765001,4.53E-11,,
,2.767001,4.45E-11,,
,2.769001,4.51E-11,,
,2.771001,4.69E-11,,
,2.773001,4.95E-11,,
,2.775001,5.16E-11,,
,2.777001,5.21E-11,,
,2.779001,5.12E-11,,
,2.781001,4.93E-11,,
,2.783001,4.83E-11,,
,2.785001,4.82E-11,,
,2.787001,4.94E-11,,
,2.789001,5.12E-11,,
,2.791001,5.30E-11,,
,2.793001,5.40E-11,,
,2.795001,5.33E-11,,
,2.797001,5.21E-11,,
,2.799001,5.13E-11,,
,2.801001,5.15E-11,,
,2.803001,5.28E-11,,
,2.805001,5.55E-11,,
,2.807001,5.84E-11,,
,2.809001,6.06E-11,,
,2.811001,6.11E-11,,
,2.813001,6.06E-11,,
,2.815001,6.00E-11,,
,2.817001,6.02E-11,,
,2.819001,6.13E-11,,
,2.821001,6.36E-11,,
,2.823001,6.65E-11,,
,2.825001,6.90E-11,,
,2.827001,7.02E-11,,
,2.829001,7.02E-11,,
,2.831001,6.99E-11,,
,2.833001,7.00E-11,,
,2.835001,7.12E-11,,
,2.837001,7.36E-11,,
,2.839001,7.66E-11,,
,2.841001,7.97E-11,,
,2.843001,8.17E-11,,
,2.845001,8.21E-11,,
,2.847001,8.09E-11,,
,2.849001,7.96E-11,,
,2.851001,7.93E-11,,
,2.853001,8.06E-11,,
,2.855001,8.29E-11,,
,2.857001,8.55E-11,,
,2.859001,8.70E-11,,
,2.861001,8.70E-11,,
,2.863001,8.56E-11,,
,2.865001,8.40E-11,,
,2.867001,8.33E-11,,
,2.869001,8.39E-11,,
,2.871001,8.58E-11,,
,2.873001,8.81E-11,,
,2.875001,8.96E-11,,
,2.877001,8.97E-11,,
,2.879001,8.82E-11,,
,2.881001,8.62E-11,,
,2.883001,8.45E-11,,
,2.885001,8.36E-11,,
,2.887001,8.37E-11,,
,2.889001,8.46E-11,,
,2.891001,8.54E-11,,
,2.893001,8.53E-11,,
,2.895001,8.37E-11,,
,2.897001,8.14E-11,,
,2.899001,7.93E-11,,
,2.901001,7.83E-11,,
,2.903001,7.87E-11,,
,2.905001,8.01E-11,,
,2.907001,8.20E-11,,
,2.909001,8.29E-11,,
,2.911001,8.21E-11,,
,2.913001,7.98E-11,,
,2.915001,7.76E-11,,
,2.917001,7.58E-11,,
,2.919001,7.51E-11,,
,2.921001,7.52E-11,,
,2.923001,7.60E-11,,
,2.925001,7.64E-11,,
,2.927001,7.54E-11,,
,2.929001,7.31E-11,,
,2.931001,7.01E-11,,
,2.933001,6.78E-11,,
,2.935001,6.70E-11,,
,2.937001,6.75E-11,,
,2.939001,6.87E-11,,
,2.941001,6.96E-11,,
,2.943001,6.94E-11,,
,2.945001,6.80E-11,,
,2.947001,6.55E-11,,
,2.949001,6.31E-11,,
,2.951001,6.18E-11,,
,2.953001,6.17E-11,,
,2.955001,6.28E-11,,
,2.957001,6.37E-11,,
,2.959001,6.42E-11,,
,2.961001,6.30E-11,,
,2.963001,6.08E-11,,
,2.965001,5.85E-11,,
,2.967001,5.70E-11,,
,2.969001,5.70E-11,,
,2.971001,5.85E-11,,
,2.973001,6.06E-11,,
,2.975001,6.23E-11,,
,2.977001,6.28E-11,,
,2.979001,6.18E-11,,
,2.981001,6.02E-11,,
,2.983001,5.89E-11,,
,2.985001,5.88E-11,,
,2.987001,6.00E-11,,
,2.989001,6.20E-11,,
,2.991001,6.40E-11,,
,2.993001,6.49E-11,,
,2.995001,6.45E-11,,
,2.997001,6.30E-11,,
,2.999001,6.17E-11,,
,3.001001,6.15E-11,,
,3.003001,6.26E-11,,
,3.005001,6.45E-11,,
,3.007001,6.68E-11,,
,3.009001,6.84E-11,,
,3.011001,6.85E-11,,
,3.013001,6.71E-11,,
,3.015001,6.54E-11,,
,3.017001,6.46E-11,,
,3.019001,6.51E-11,,
,3.021001,6.68E-11,,
,3.023001,6.86E-11,,
,3.025001,7.00E-11,,
,3.027001,7.01E-11,,
,3.029001,6.88E-11,,
,3.031001,6.70E-11,,
,3.033001,6.57E-11,,
,3.035001,6.57E-11,,
,3.037001,6.69E-11,,
,3.039001,6.87E-11,,
,3.041001,7.04E-11,,
,3.043001,7.08E-11,,
,3.045001,6.98E-11,,
,3.047001,6.75E-11,,
,3.049001,6.56E-11,,
,3.051001,6.46E-11,,
,3.053001,6.48E-11,,
,3.055001,6.62E-11,,
,3.057001,6.78E-11,,
,3.059001,6.92E-11,,
,3.061001,6.87E-11,,
,3.063001,6.71E-11,,
,3.065001,6.51E-11,,
,3.067001,6.42E-11,,
,3.069001,6.46E-11,,
,3.071001,6.62E-11,,
,3.073001,6.88E-11,,
,3.075001,7.08E-11,,
,3.077001,7.16E-11,,
,3.079001,7.03E-11,,
,3.081001,6.83E-11,,
,3.083001,6.64E-11,,
,3.085001,6.59E-11,,
,3.087001,6.64E-11,,
,3.089001,6.73E-11,,
,3.091001,6.83E-11,,
,3.093001,6.81E-11,,
,3.095001,6.65E-11,,
,3.097001,6.40E-11,,
,3.099001,6.17E-11,,
,3.101001,6.07E-11,,
,3.103001,6.10E-11,,
,3.105001,6.22E-11,,
,3.107001,6.42E-11,,
,3.109001,6.51E-11,,
,3.111001,6.45E-11,,
,3.113001,6.22E-11,,
,3.115001,5.98E-11,,
,3.117001,5.78E-11,,
,3.119001,5.74E-11,,
,3.121001,5.79E-11,,
,3.123001,5.93E-11,,
,3.125001,6.01E-11,,
,3.127001,5.96E-11,,
,3.129001,5.74E-11,,
,3.131001,5.49E-11,,
,3.133001,5.30E-11,,
,3.135001,5.24E-11,,
,3.137001,5.28E-11,,
,3.139001,5.41E-11,,
,3.141001,5.52E-11,,
,3.143001,5.48E-11,,
,3.145001,5.30E-11,,
,3.147001,5.02E-11,,
,3.149001,4.75E-11,,
,3.151001,4.57E-11,,
,3.153001,4.48E-11,,
,3.155001,4.48E-11,,
,3.157001,4.54E-11,,
,3.159001,4.53E-11,,
,3.161001,4.36E-11,,
,3.163001,4.06E-11,,
,3.165001,3.72E-11,,
,3.167001,3.51E-11,,
,3.169001,3.40E-11,,
,3.171001,3.41E-11,,
,3.173001,3.47E-11,,
,3.175001,3.45E-11,,
,3.177001,3.33E-11,,
,3.179001,3.01E-11,,
,3.181001,2.61E-11,,
,3.183001,2.22E-11,,
,3.185001,1.94E-11,,
,3.187001,1.75E-11,,
,3.189001,1.61E-11,,
,3.191001,1.43E-11,,
,3.193001,1.18E-11,,
,3.195001,7.17E-12,,
,3.197001,1.48E-12,,
,3.199001,-4.75E-12,,
,3.201001,-1.01E-11,,
,3.203001,-1.51E-11,,
,3.205001,-1.98E-11,,
,3.207001,-2.53E-11,,
,3.209001,-3.29E-11,,
,3.211001,-4.33E-11,,
,3.213001,-5.64E-11,,
,3.215001,-7.06E-11,,
,3.217001,-8.48E-11,,
,3.219001,-9.92E-11,,
,3.221001,-1.14E-10,,
,3.223001,-1.29E-10,,
,3.225001,-1.46E-10,,
,3.227001,-1.65E-10,,
,3.229001,-1.87E-10,,
,3.231001,-2.10E-10,,
,3.233001,-2.33E-10,,
,3.235001,-2.55E-10,,
,3.237001,-2.77E-10,,
,3.239001,-2.99E-10,,
,3.241001,-3.22E-10,,
,3.243001,-3.45E-10,,
,3.245001,-3.70E-10,,
,3.247001,-3.97E-10,,
,3.249001,-4.24E-10,,
,3.251001,-4.50E-10,,
,3.253001,-4.75E-10,,
,3.255001,-4.99E-10,,
,3.257001,-5.22E-10,,
,3.259001,-5.46E-10,,
,3.261001,-5.71E-10,,
,3.263001,-5.96E-10,,
,3.265001,-6.22E-10,,
,3.267001,-6.46E-10,,
,3.269001,-6.68E-10,,
,3.271001,-6.89E-10,,
,3.273001,-7.09E-10,,
,3.275001,-7.29E-10,,
,3.277001,-7.49E-10,,
,3.279001,-7.71E-10,,
,3.281001,-7.93E-10,,
,3.283001,-8.14E-10,,
,3.285001,-8.33E-10,,
,3.287001,-8.50E-10,,
,3.289001,-8.66E-10,,
,3.291001,-8.81E-10,,
,3.293001,-8.97E-10,,
,3.295001,-9.13E-10,,
,3.297001,-9.29E-10,,
,3.299001,-9.45E-10,,
,3.301001,-9.58E-10,,
,3.303001,-9.71E-10,,
,3.305001,-9.82E-10,,
,3.307001,-9.93E-10,,
,3.309001,-1.00E-09,,
,3.311001,-1.01E-09,,
,3.313001,-1.02E-09,,
,3.315001,-1.03E-09,,
,3.317001,-1.04E-09,,
,3.319001,-1.04E-09,,
,3.321001,-1.05E-09,,
,3.323001,-1.05E-09,,
,3.325001,-1.05E-09,,
,3.327001,-1.05E-09,,
,3.329001,-1.05E-09,,
,3.331001,-1.05E-09,,
,3.333001,-1.04E-09,,
,3.335001,-1.04E-09,,
,3.337001,-1.03E-09,,
,3.339001,-1.02E-09,,
,3.341001,-1.01E-09,,
,3.343001,-9.98E-10,,
,3.345001,-9.87E-10,,
,3.347001,-9.75E-10,,
,3.349001,-9.62E-10,,
,3.351001,-9.47E-10,,
,3.353001,-9.30E-10,,
,3.355001,-9.12E-10,,
,3.357001,-8.91E-10,,
,3.359001,-8.70E-10,,
,3.361001,-8.48E-10,,
,3.363001,-8.26E-10,,
,3.365001,-8.02E-10,,
,3.367001,-7.76E-10,,
,3.369001,-7.47E-10,,
,3.371001,-7.17E-10,,
,3.373001,-6.85E-10,,
,3.375001,-6.52E-10,,
,3.377001,-6.19E-10,,
,3.379001,-5.86E-10,,
,3.381001,-5.51E-10,,
,3.383001,-5.15E-10,,
,3.385001,-4.78E-10,,
,3.387001,-4.38E-10,,
,3.389001,-3.98E-10,,
,3.391001,-3.58E-10,,
,3.393001,-3.18E-10,,
,3.395001,-2.79E-10,,
,3.397001,-2.40E-10,,
,3.399001,-2.02E-10,,
,3.401001,-1.62E-10,,
,3.403001,-1.21E-10,,
,3.405001,-7.95E-11,,
,3.407001,-3.77E-11,,
,3.409001,2.98E-12,,
,3.411001,4.23E-11,,
,3.413001,8.02E-11,,
,3.415001,1.18E-10,,
,3.417001,1.55E-10,,
,3.419001,1.92E-10,,
,3.421001,2.28E-10,,
,3.423001,2.64E-10,,
,3.425001,2.98E-10,,
,3.427001,3.31E-10,,
,3.429001,3.61E-10,,
,3.431001,3.90E-10,,
,3.433001,4.18E-10,,
,3.435001,4.46E-10,,
,3.437001,4.73E-10,,
,3.439001,4.99E-10,,
,3.441001,5.24E-10,,
,3.443001,5.46E-10,,
,3.445001,5.65E-10,,
,3.447001,5.83E-10,,
,3.449001,5.99E-10,,
,3.451001,6.14E-10,,
,3.453001,6.29E-10,,
,3.455001,6.44E-10,,
,3.457001,6.57E-10,,
,3.459001,6.69E-10,,
,3.461001,6.78E-10,,
,3.463001,6.86E-10,,
,3.465001,6.92E-10,,
,3.467001,6.99E-10,,
,3.469001,7.05E-10,,
,3.471001,7.11E-10,,
,3.473001,7.17E-10,,
,3.475001,7.22E-10,,
,3.477001,7.26E-10,,
,3.479001,7.27E-10,,
,3.481001,7.28E-10,,
,3.483001,7.28E-10,,
,3.485001,7.29E-10,,
,3.487001,7.30E-10,,
,3.489001,7.31E-10,,
,3.491001,7.32E-10,,
,3.493001,7.31E-10,,
,3.495001,7.28E-10,,
,3.497001,7.25E-10,,
,3.499001,7.21E-10,,
,3.501001,7.18E-10,,
,3.503001,7.15E-10,,
,3.505001,7.12E-10,,
,3.507001,7.09E-10,,
,3.509001,7.05E-10,,
,3.511001,6.99E-10,,
,3.513001,6.91E-10,,
,3.515001,6.83E-10,,
,3.517001,6.75E-10,,
,3.519001,6.67E-10,,
,3.521001,6.58E-10,,
,3.523001,6.50E-10,,
,3.525001,6.40E-10,,
,3.527001,6.28E-10,,
,3.529001,6.15E-10,,
,3.531001,6.00E-10,,
,3.533001,5.85E-10,,
,3.535001,5.70E-10,,
,3.537001,5.55E-10,,
,3.539001,5.39E-10,,
,3.541001,5.22E-10,,
,3.543001,5.03E-10,,
,3.545001,4.82E-10,,
,3.547001,4.59E-10,,
,3.549001,4.36E-10,,
,3.551001,4.13E-10,,
,3.553001,3.90E-10,,
,3.555001,3.68E-10,,
,3.557001,3.45E-10,,
,3.559001,3.21E-10,,
,3.561001,2.96E-10,,
,3.563001,2.71E-10,,
,3.565001,2.46E-10,,
,3.567001,2.22E-10,,
,3.569001,1.99E-10,,
,3.571001,1.78E-10,,
,3.573001,1.58E-10,,
,3.575001,1.38E-10,,
,3.577001,1.18E-10,,
,3.579001,9.81E-11,,
,3.581001,7.89E-11,,
,3.583001,6.08E-11,,
,3.585001,4.51E-11,,
,3.587001,3.08E-11,,
,3.589001,1.82E-11,,
,3.591001,6.42E-12,,
,3.593001,-4.96E-12,,
,3.595001,-1.65E-11,,
,3.597001,-2.78E-11,,
,3.599001,-3.81E-11,,
,3.601001,-4.70E-11,,
,3.603001,-5.41E-11,,
,3.605001,-6.03E-11,,
,3.607001,-6.58E-11,,
,3.609001,-7.20E-11,,
,3.611001,-7.87E-11,,
,3.613001,-8.61E-11,,
,3.615001,-9.33E-11,,
,3.617001,-9.98E-11,,
,3.619001,-1.05E-10,,
,3.621001,-1.09E-10,,
,3.623001,-1.13E-10,,
,3.625001,-1.18E-10,,
,3.627001,-1.23E-10,,
,3.629001,-1.29E-10,,
,3.631001,-1.35E-10,,
,3.633001,-1.41E-10,,
,3.635001,-1.45E-10,,
,3.637001,-1.49E-10,,
,3.639001,-1.52E-10,,
,3.641001,-1.55E-10,,
,3.643001,-1.59E-10,,
,3.645001,-1.64E-10,,
,3.647001,-1.70E-10,,
,3.649001,-1.75E-10,,
,3.651001,-1.79E-10,,
,3.653001,-1.83E-10,,
,3.655001,-1.85E-10,,
,3.657001,-1.87E-10,,
,3.659001,-1.90E-10,,
,3.661001,-1.93E-10,,
,3.663001,-1.98E-10,,
,3.665001,-2.02E-10,,
,3.667001,-2.06E-10,,
,3.669001,-2.08E-10,,
,3.671001,-2.10E-10,,
,3.673001,-2.11E-10,,
,3.675001,-2.12E-10,,
,3.677001,-2.14E-10,,
,3.679001,-2.18E-10,,
,3.681001,-2.21E-10,,
,3.683001,-2.25E-10,,
,3.685001,-2.27E-10,,
,3.687001,-2.28E-10,,
,3.689001,-2.29E-10,,
,3.691001,-2.30E-10,,
,3.693001,-2.31E-10,,
,3.695001,-2.33E-10,,
,3.697001,-2.36E-10,,
,3.699001,-2.39E-10,,
,3.701001,-2.40E-10,,
,3.703001,-2.41E-10,,
,3.705001,-2.40E-10,,
,3.707001,-2.39E-10,,
,3.709001,-2.39E-10,,
,3.711001,-2.40E-10,,
,3.713001,-2.42E-10,,
,3.715001,-2.43E-10,,
,3.717001,-2.44E-10,,
,3.719001,-2.44E-10,,
,3.721001,-2.43E-10,,
,3.723001,-2.41E-10,,
,3.725001,-2.40E-10,,
,3.727001,-2.38E-10,,
,3.729001,-2.38E-10,,
,3.731001,-2.38E-10,,
,3.733001,-2.37E-10,,
,3.735001,-2.35E-10,,
,3.737001,-2.32E-10,,
,3.739001,-2.28E-10,,
,3.741001,-2.25E-10,,
,3.743001,-2.21E-10,,
,3.745001,-2.19E-10,,
,3.747001,-2.17E-10,,
,3.749001,-2.15E-10,,
,3.751001,-2.11E-10,,
,3.753001,-2.07E-10,,
,3.755001,-2.01E-10,,
,3.757001,-1.95E-10,,
,3.759001,-1.89E-10,,
,3.761001,-1.84E-10,,
,3.763001,-1.79E-10,,
,3.765001,-1.75E-10,,
,3.767001,-1.69E-10,,
,3.769001,-1.63E-10,,
,3.771001,-1.55E-10,,
,3.773001,-1.47E-10,,
,3.775001,-1.39E-10,,
,3.777001,-1.33E-10,,
,3.779001,-1.27E-10,,
,3.781001,-1.22E-10,,
,3.783001,-1.15E-10,,
,3.785001,-1.08E-10,,
,3.787001,-9.94E-11,,
,3.789001,-9.05E-11,,
,3.791001,-8.20E-11,,
,3.793001,-7.46E-11,,
,3.795001,-6.84E-11,,
,3.797001,-6.26E-11,,
,3.799001,-5.61E-11,,
,3.801001,-4.89E-11,,
,3.803001,-4.07E-11,,
,3.805001,-3.18E-11,,
,3.807001,-2.28E-11,,
,3.809001,-1.44E-11,,
,3.811001,-7.54E-12,,
,3.813001,-1.10E-12,,
,3.815001,4.81E-12,,
,3.817001,1.11E-11,,
,3.819001,1.81E-11,,
,3.821001,2.56E-11,,
,3.823001,3.35E-11,,
,3.825001,4.07E-11,,
,3.827001,4.71E-11,,
,3.829001,5.27E-11,,
,3.831001,5.82E-11,,
,3.833001,6.40E-11,,
,3.835001,7.07E-11,,
,3.837001,7.78E-11,,
,3.839001,8.55E-11,,
,3.841001,9.29E-11,,
,3.843001,9.97E-11,,
,3.845001,1.05E-10,,
,3.847001,1.10E-10,,
,3.849001,1.15E-10,,
,3.851001,1.21E-10,,
,3.853001,1.28E-10,,
,3.855001,1.35E-10,,
,3.857001,1.43E-10,,
,3.859001,1.49E-10,,
,3.861001,1.54E-10,,
,3.863001,1.58E-10,,
,3.865001,1.62E-10,,
,3.867001,1.67E-10,,
,3.869001,1.72E-10,,
,3.871001,1.78E-10,,
,3.873001,1.84E-10,,
,3.875001,1.89E-10,,
,3.877001,1.94E-10,,
,3.879001,1.96E-10,,
,3.881001,1.98E-10,,
,3.883001,2.00E-10,,
,3.885001,2.03E-10,,
,3.887001,2.06E-10,,
,3.889001,2.09E-10,,
,3.891001,2.11E-10,,
,3.893001,2.13E-10,,
,3.895001,2.13E-10,,
,3.897001,2.12E-10,,
,3.899001,2.11E-10,,
,3.901001,2.11E-10,,
,3.903001,2.11E-10,,
,3.905001,2.12E-10,,
,3.907001,2.13E-10,,
,3.909001,2.13E-10,,
,3.911001,2.11E-10,,
,3.913001,2.08E-10,,
,3.915001,2.05E-10,,
,3.917001,2.02E-10,,
,3.919001,1.99E-10,,
,3.921001,1.97E-10,,
,3.923001,1.95E-10,,
,3.925001,1.92E-10,,
,3.927001,1.88E-10,,
,3.929001,1.82E-10,,
,3.931001,1.76E-10,,
,3.933001,1.70E-10,,
,3.935001,1.65E-10,,
,3.937001,1.60E-10,,
,3.939001,1.56E-10,,
,3.941001,1.52E-10,,
,3.943001,1.46E-10,,
,3.945001,1.39E-10,,
,3.947001,1.31E-10,,
,3.949001,1.24E-10,,
,3.951001,1.17E-10,,
,3.953001,1.10E-10,,
,3.955001,1.03E-10,,
,3.957001,9.75E-11,,
,3.959001,9.07E-11,,
,3.961001,8.30E-11,,
,3.963001,7.37E-11,,
,3.965001,6.46E-11,,
,3.967001,5.58E-11,,
,3.969001,4.79E-11,,
,3.971001,4.04E-11,,
,3.973001,3.29E-11,,
,3.975001,2.45E-11,,
,3.977001,1.43E-11,,
,3.979001,2.23E-12,,
,3.981001,-1.08E-11,,
,3.983001,-2.39E-11,,
,3.985001,-3.68E-11,,
,3.987001,-4.95E-11,,
,3.989001,-6.22E-11,,
,3.991001,-7.50E-11,,
,3.993001,-8.87E-11,,
,3.995001,-1.04E-10,,
,3.997001,-1.19E-10,,
,3.999001,-1.34E-10,,
,4.001001,-1.49E-10,,
,4.003001,-1.62E-10,,
,4.005001,-1.75E-10,,
,4.007001,-1.88E-10,,
,4.009001,-2.02E-10,,
,4.011001,-2.17E-10,,
,4.013001,-2.32E-10,,
,4.015001,-2.48E-10,,
,4.017001,-2.62E-10,,
,4.019001,-2.75E-10,,
,4.021001,-2.88E-10,,
,4.023001,-3.00E-10,,
,4.025001,-3.12E-10,,
,4.027001,-3.24E-10,,
,4.029001,-3.38E-10,,
,4.031001,-3.51E-10,,
,4.033001,-3.63E-10,,
,4.035001,-3.74E-10,,
,4.037001,-3.84E-10,,
,4.039001,-3.93E-10,,
,4.041001,-4.02E-10,,
,4.043001,-4.10E-10,,
,4.045001,-4.20E-10,,
,4.047001,-4.30E-10,,
,4.049001,-4.39E-10,,
,4.051001,-4.47E-10,,
,4.053001,-4.54E-10,,
,4.055001,-4.60E-10,,
,4.057001,-4.65E-10,,
,4.059001,-4.71E-10,,
,4.061001,-4.77E-10,,
,4.063001,-4.83E-10,,
,4.065001,-4.89E-10,,
,4.067001,-4.93E-10,,
,4.069001,-4.96E-10,,
,4.071001,-4.98E-10,,
,4.073001,-4.98E-10,,
,4.075001,-4.99E-10,,
,4.077001,-5.00E-10,,
,4.079001,-5.02E-10,,
,4.081001,-5.03E-10,,
,4.083001,-5.04E-10,,
,4.085001,-5.03E-10,,
,4.087001,-5.01E-10,,
,4.089001,-4.98E-10,,
,4.091001,-4.95E-10,,
,4.093001,-4.92E-10,,
,4.095001,-4.90E-10,,
,4.097001,-4.88E-10,,
,4.099001,-4.86E-10,,
,4.101001,-4.83E-10,,
,4.103001,-4.78E-10,,
,4.105001,-4.72E-10,,
,4.107001,-4.66E-10,,
,4.109001,-4.61E-10,,
,4.111001,-4.56E-10,,
,4.113001,-4.52E-10,,
,4.115001,-4.49E-10,,
,4.117001,-4.45E-10,,
,4.119001,-4.39E-10,,
,4.121001,-4.33E-10,,
,4.123001,-4.27E-10,,
,4.125001,-4.20E-10,,
,4.127001,-4.15E-10,,
,4.129001,-4.11E-10,,
,4.131001,-4.07E-10,,
,4.133001,-4.02E-10,,
,4.135001,-3.96E-10,,
,4.137001,-3.90E-10,,
,4.139001,-3.83E-10,,
,4.141001,-3.75E-10,,
,4.143001,-3.69E-10,,
,4.145001,-3.65E-10,,
,4.147001,-3.61E-10,,
,4.149001,-3.57E-10,,
,4.151001,-3.52E-10,,
,4.153001,-3.47E-10,,
,4.155001,-3.42E-10,,
,4.157001,-3.36E-10,,
,4.159001,-3.32E-10,,
,4.161001,-3.28E-10,,
,4.163001,-3.25E-10,,
,4.165001,-3.23E-10,,
,4.167001,-3.19E-10,,
,4.169001,-3.16E-10,,
,4.171001,-3.11E-10,,
,4.173001,-3.07E-10,,
,4.175001,-3.02E-10,,
,4.177001,-2.99E-10,,
,4.179001,-2.97E-10,,
,4.181001,-2.96E-10,,
,4.183001,-2.94E-10,,
,4.185001,-2.92E-10,,
,4.187001,-2.88E-10,,
,4.189001,-2.84E-10,,
,4.191001,-2.80E-10,,
,4.193001,-2.78E-10,,
,4.195001,-2.76E-10,,
,4.197001,-2.75E-10,,
,4.199001,-2.73E-10,,
,4.201001,-2.71E-10,,
,4.203001,-2.67E-10,,
,4.205001,-2.63E-10,,
,4.207001,-2.58E-10,,
,4.209001,-2.54E-10,,
,4.211001,-2.52E-10,,
,4.213001,-2.50E-10,,
,4.215001,-2.48E-10,,
,4.217001,-2.46E-10,,
,4.219001,-2.42E-10,,
,4.221001,-2.38E-10,,
,4.223001,-2.34E-10,,
,4.225001,-2.31E-10,,
,4.227001,-2.28E-10,,
,4.229001,-2.26E-10,,
,4.231001,-2.25E-10,,
,4.233001,-2.22E-10,,
,4.235001,-2.20E-10,,
,4.237001,-2.16E-10,,
,4.239001,-2.12E-10,,
,4.241001,-2.08E-10,,
,4.243001,-2.04E-10,,
,4.245001,-2.02E-10,,
,4.247001,-2.00E-10,,
,4.249001,-1.98E-10,,
,4.251001,-1.96E-10,,
,4.253001,-1.93E-10,,
,4.255001,-1.89E-10,,
,4.257001,-1.85E-10,,
,4.259001,-1.82E-10,,
,4.261001,-1.80E-10,,
,4.263001,-1.78E-10,,
,4.265001,-1.76E-10,,
,4.267001,-1.73E-10,,
,4.269001,-1.70E-10,,
,4.271001,-1.65E-10,,
,4.273001,-1.60E-10,,
,4.275001,-1.56E-10,,
,4.277001,-1.52E-10,,
,4.279001,-1.49E-10,,
,4.281001,-1.47E-10,,
,4.283001,-1.44E-10,,
,4.285001,-1.40E-10,,
,4.287001,-1.36E-10,,
,4.289001,-1.31E-10,,
,4.291001,-1.26E-10,,
,4.293001,-1.21E-10,,
,4.295001,-1.18E-10,,
,4.297001,-1.15E-10,,
,4.299001,-1.12E-10,,
,4.301001,-1.08E-10,,
,4.303001,-1.03E-10,,
,4.305001,-9.75E-11,,
,4.307001,-9.17E-11,,
,4.309001,-8.64E-11,,
,4.311001,-8.22E-11,,
,4.313001,-7.88E-11,,
,4.315001,-7.54E-11,,
,4.317001,-7.13E-11,,
,4.319001,-6.60E-11,,
,4.321001,-6.04E-11,,
,4.323001,-5.41E-11,,
,4.325001,-4.81E-11,,
,4.327001,-4.32E-11,,
,4.329001,-3.90E-11,,
,4.331001,-3.51E-11,,
,4.333001,-3.00E-11,,
,4.335001,-2.39E-11,,
,4.337001,-1.65E-11,,
,4.339001,-8.61E-12,,
,4.341001,-5.62E-13,,
,4.343001,6.74E-12,,
,4.345001,1.32E-11,,
,4.347001,1.92E-11,,
,4.349001,2.54E-11,,
,4.351001,3.27E-11,,
,4.353001,4.13E-11,,
,4.355001,5.10E-11,,
,4.357001,6.13E-11,,
,4.359001,7.09E-11,,
,4.361001,7.98E-11,,
,4.363001,8.81E-11,,
,4.365001,9.67E-11,,
,4.367001,1.06E-10,,
,4.369001,1.17E-10,,
,4.371001,1.29E-10,,
,4.373001,1.42E-10,,
,4.375001,1.54E-10,,
,4.377001,1.66E-10,,
,4.379001,1.77E-10,,
,4.381001,1.87E-10,,
,4.383001,1.98E-10,,
,4.385001,2.10E-10,,
,4.387001,2.23E-10,,
,4.389001,2.36E-10,,
,4.391001,2.49E-10,,
,4.393001,2.61E-10,,
,4.395001,2.72E-10,,
,4.397001,2.83E-10,,
,4.399001,2.94E-10,,
,4.401001,3.07E-10,,
,4.403001,3.20E-10,,
,4.405001,3.34E-10,,
,4.407001,3.49E-10,,
,4.409001,3.62E-10,,
,4.411001,3.73E-10,,
,4.413001,3.84E-10,,
,4.415001,3.94E-10,,
,4.417001,4.04E-10,,
,4.419001,4.15E-10,,
,4.421001,4.26E-10,,
,4.423001,4.36E-10,,
,4.425001,4.46E-10,,
,4.427001,4.53E-10,,
,4.429001,4.60E-10,,
,4.431001,4.64E-10,,
,4.433001,4.69E-10,,
,4.435001,4.74E-10,,
,4.437001,4.79E-10,,
,4.439001,4.84E-10,,
,4.441001,4.88E-10,,
,4.443001,4.91E-10,,
,4.445001,4.92E-10,,
,4.447001,4.91E-10,,
,4.449001,4.90E-10,,
,4.451001,4.90E-10,,
,4.453001,4.90E-10,,
,4.455001,4.89E-10,,
,4.457001,4.88E-10,,
,4.459001,4.86E-10,,
,4.461001,4.82E-10,,
,4.463001,4.76E-10,,
,4.465001,4.70E-10,,
,4.467001,4.64E-10,,
,4.469001,4.58E-10,,
,4.471001,4.53E-10,,
,4.473001,4.48E-10,,
,4.475001,4.41E-10,,
,4.477001,4.34E-10,,
,4.479001,4.24E-10,,
,4.481001,4.14E-10,,
,4.483001,4.04E-10,,
,4.485001,3.94E-10,,
,4.487001,3.85E-10,,
,4.489001,3.75E-10,,
,4.491001,3.65E-10,,
,4.493001,3.55E-10,,
,4.495001,3.43E-10,,
,4.497001,3.30E-10,,
,4.499001,3.16E-10,,
,4.501001,3.04E-10,,
,4.503001,2.92E-10,,
,4.505001,2.81E-10,,
,4.507001,2.70E-10,,
,4.509001,2.59E-10,,
,4.511001,2.47E-10,,
,4.513001,2.34E-10,,
,4.515001,2.22E-10,,
,4.517001,2.10E-10,,
,4.519001,2.00E-10,,
,4.521001,1.91E-10,,
,4.523001,1.82E-10,,
,4.525001,1.73E-10,,
,4.527001,1.65E-10,,
,4.529001,1.55E-10,,
,4.531001,1.46E-10,,
,4.533001,1.38E-10,,
,4.535001,1.32E-10,,
,4.537001,1.27E-10,,
,4.539001,1.23E-10,,
,4.541001,1.20E-10,,
,4.543001,1.16E-10,,
,4.545001,1.11E-10,,
,4.547001,1.06E-10,,
,4.549001,1.02E-10,,
,4.551001,9.87E-11,,
,4.553001,9.70E-11,,
,4.555001,9.64E-11,,
,4.557001,9.65E-11,,
,4.559001,9.66E-11,,
,4.561001,9.60E-11,,
,4.563001,9.50E-11,,
,4.565001,9.41E-11,,
,4.567001,9.43E-11,,
,4.569001,9.54E-11,,
,4.571001,9.76E-11,,
,4.573001,1.00E-10,,
,4.575001,1.03E-10,,
,4.577001,1.05E-10,,
,4.579001,1.07E-10,,
,4.581001,1.08E-10,,
,4.583001,1.10E-10,,
,4.585001,1.13E-10,,
,4.587001,1.17E-10,,
,4.589001,1.21E-10,,
,4.591001,1.25E-10,,
,4.593001,1.28E-10,,
,4.595001,1.30E-10,,
,4.597001,1.32E-10,,
,4.599001,1.33E-10,,
,4.601001,1.35E-10,,
,4.603001,1.38E-10,,
,4.605001,1.41E-10,,
,4.607001,1.45E-10,,
,4.609001,1.47E-10,,
,4.611001,1.46E-10,,
,4.613001,1.45E-10,,
,4.615001,1.43E-10,,
,4.617001,1.41E-10,,
,4.619001,1.39E-10,,
,4.621001,1.38E-10,,
,4.623001,1.36E-10,,
,4.625001,1.34E-10,,
,4.627001,1.30E-10,,
,4.629001,1.25E-10,,
,4.631001,1.19E-10,,
,4.633001,1.12E-10,,
,4.635001,1.07E-10,,
,4.637001,1.01E-10,,
,4.639001,9.53E-11,,
,4.641001,8.85E-11,,
,4.643001,8.03E-11,,
,4.645001,6.99E-11,,
,4.647001,5.85E-11,,
,4.649001,4.69E-11,,
,4.651001,3.59E-11,,
,4.653001,2.56E-11,,
,4.655001,1.60E-11,,
,4.657001,5.77E-12,,
,4.659001,-4.96E-12,,
,4.661001,-1.67E-11,,
,4.663001,-2.89E-11,,
,4.665001,-4.09E-11,,
,4.667001,-5.19E-11,,
,4.669001,-6.15E-11,,
,4.671001,-7.01E-11,,
,4.673001,-7.82E-11,,
,4.675001,-8.64E-11,,
,4.677001,-9.58E-11,,
,4.679001,-1.06E-10,,
,4.681001,-1.16E-10,,
,4.683001,-1.26E-10,,
,4.685001,-1.34E-10,,
,4.687001,-1.42E-10,,
,4.689001,-1.49E-10,,
,4.691001,-1.55E-10,,
,4.693001,-1.61E-10,,
,4.695001,-1.69E-10,,
,4.697001,-1.76E-10,,
,4.699001,-1.83E-10,,
,4.701001,-1.88E-10,,
,4.703001,-1.93E-10,,
,4.705001,-1.97E-10,,
,4.707001,-2.02E-10,,
,4.709001,-2.07E-10,,
,4.711001,-2.14E-10,,
,4.713001,-2.22E-10,,
,4.715001,-2.29E-10,,
,4.717001,-2.36E-10,,
,4.719001,-2.43E-10,,
,4.721001,-2.48E-10,,
,4.723001,-2.53E-10,,
,4.725001,-2.59E-10,,
,4.727001,-2.65E-10,,
,4.729001,-2.72E-10,,
,4.731001,-2.79E-10,,
,4.733001,-2.86E-10,,
,4.735001,-2.92E-10,,
,4.737001,-2.97E-10,,
,4.739001,-3.01E-10,,
,4.741001,-3.06E-10,,
,4.743001,-3.12E-10,,
,4.745001,-3.19E-10,,
,4.747001,-3.26E-10,,
,4.749001,-3.33E-10,,
,4.751001,-3.39E-10,,
,4.753001,-3.44E-10,,
,4.755001,-3.48E-10,,
,4.757001,-3.52E-10,,
,4.759001,-3.56E-10,,
,4.761001,-3.61E-10,,
,4.763001,-3.67E-10,,
,4.765001,-3.72E-10,,
,4.767001,-3.77E-10,,
,4.769001,-3.81E-10,,
,4.771001,-3.84E-10,,
,4.773001,-3.86E-10,,
,4.775001,-3.88E-10,,
,4.777001,-3.92E-10,,
,4.779001,-3.96E-10,,
,4.781001,-3.99E-10,,
,4.783001,-4.02E-10,,
,4.785001,-4.05E-10,,
,4.787001,-4.06E-10,,
,4.789001,-4.06E-10,,
,4.791001,-4.07E-10,,
,4.793001,-4.08E-10,,
,4.795001,-4.11E-10,,
,4.797001,-4.13E-10,,
,4.799001,-4.15E-10,,
,4.801001,-4.16E-10,,
,4.803001,-4.15E-10,,
,4.805001,-4.14E-10,,
,4.807001,-4.12E-10,,
,4.809001,-4.11E-10,,
,4.811001,-4.11E-10,,
,4.813001,-4.12E-10,,
,4.815001,-4.12E-10,,
,4.817001,-4.12E-10,,
,4.819001,-4.11E-10,,
,4.821001,-4.10E-10,,
,4.823001,-4.08E-10,,
,4.825001,-4.05E-10,,
,4.827001,-4.04E-10,,
,4.829001,-4.03E-10,,
,4.831001,-4.03E-10,,
,4.833001,-4.01E-10,,
,4.835001,-3.99E-10,,
,4.837001,-3.95E-10,,
,4.839001,-3.91E-10,,
,4.841001,-3.88E-10,,
,4.843001,-3.85E-10,,
,4.845001,-3.83E-10,,
,4.847001,-3.82E-10,,
,4.849001,-3.80E-10,,
,4.851001,-3.78E-10,,
,4.853001,-3.75E-10,,
,4.855001,-3.71E-10,,
,4.857001,-3.66E-10,,
,4.859001,-3.62E-10,,
,4.861001,-3.59E-10,,
,4.863001,-3.56E-10,,
,4.865001,-3.54E-10,,
,4.867001,-3.50E-10,,
,4.869001,-3.45E-10,,
,4.871001,-3.40E-10,,
,4.873001,-3.35E-10,,
,4.875001,-3.30E-10,,
,4.877001,-3.26E-10,,
,4.879001,-3.24E-10,,
,4.881001,-3.22E-10,,
,4.883001,-3.19E-10,,
,4.885001,-3.15E-10,,
,4.887001,-3.10E-10,,
,4.889001,-3.06E-10,,
,4.891001,-3.01E-10,,
,4.893001,-2.97E-10,,
,4.895001,-2.93E-10,,
,4.897001,-2.91E-10,,
,4.899001,-2.88E-10,,
,4.901001,-2.84E-10,,
,4.903001,-2.80E-10,,
,4.905001,-2.75E-10,,
,4.907001,-2.70E-10,,
,4.909001,-2.66E-10,,
,4.911001,-2.63E-10,,
,4.913001,-2.61E-10,,
,4.915001,-2.59E-10,,
,4.917001,-2.56E-10,,
,4.919001,-2.52E-10,,
,4.921001,-2.47E-10,,
,4.923001,-2.43E-10,,
,4.925001,-2.40E-10,,
,4.927001,-2.37E-10,,
,4.929001,-2.36E-10,,
,4.931001,-2.35E-10,,
,4.933001,-2.34E-10,,
,4.935001,-2.32E-10,,
,4.937001,-2.28E-10,,
,4.939001,-2.25E-10,,
,4.941001,-2.21E-10,,
,4.943001,-2.19E-10,,
,4.945001,-2.17E-10,,
,4.947001,-2.17E-10,,
,4.949001,-2.16E-10,,
,4.951001,-2.16E-10,,
,4.953001,-2.15E-10,,
,4.955001,-2.13E-10,,
,4.957001,-2.11E-10,,
,4.959001,-2.10E-10,,
,4.961001,-2.10E-10,,
,4.963001,-2.12E-10,,
,4.965001,-2.13E-10,,
,4.967001,-2.13E-10,,
,4.969001,-2.13E-10,,
,4.971001,-2.12E-10,,
,4.973001,-2.11E-10,,
,4.975001,-2.12E-10,,
,4.977001,-2.12E-10,,
,4.979001,-2.15E-10,,
,4.981001,-2.18E-10,,
,4.983001,-2.21E-10,,
,4.985001,-2.23E-10,,
,4.987001,-2.25E-10,,
,4.989001,-2.26E-10,,
,4.991001,-2.28E-10,,
,4.993001,-2.31E-10,,
,4.995001,-2.35E-10,,
,4.997001,-2.40E-10,,
,4.999001,-2.45E-10,,
,5.001001,-2.48E-10,,
,5.003001,-2.51E-10,,
,5.005001,-2.53E-10,,
,5.007001,-2.55E-10,,
,5.009001,-2.58E-10,,
,5.011001,-2.62E-10,,
,5.013001,-2.66E-10,,
,5.015001,-2.71E-10,,
,5.017001,-2.76E-10,,
,5.019001,-2.79E-10,,
,5.021001,-2.82E-10,,
,5.023001,-2.84E-10,,
,5.025001,-2.87E-10,,
,5.027001,-2.90E-10,,
,5.029001,-2.95E-10,,
,5.031001,-3.00E-10,,
,5.033001,-3.03E-10,,
,5.035001,-3.06E-10,,
,5.037001,-3.08E-10,,
,5.039001,-3.10E-10,,
,5.041001,-3.11E-10,,
,5.043001,-3.14E-10,,
,5.045001,-3.17E-10,,
,5.047001,-3.22E-10,,
,5.049001,-3.26E-10,,
,5.051001,-3.29E-10,,
,5.053001,-3.31E-10,,
,5.055001,-3.33E-10,,
,5.057001,-3.34E-10,,
,5.059001,-3.36E-10,,
,5.061001,-3.39E-10,,
,5.063001,-3.42E-10,,
,5.065001,-3.46E-10,,
,5.067001,-3.49E-10,,
,5.069001,-3.50E-10,,
,5.071001,-3.51E-10,,
,5.073001,-3.52E-10,,
,5.075001,-3.53E-10,,
,5.077001,-3.55E-10,,
,5.079001,-3.58E-10,,
,5.081001,-3.61E-10,,
,5.083001,-3.63E-10,,
,5.085001,-3.65E-10,,
,5.087001,-3.66E-10,,
,5.089001,-3.66E-10,,
,5.091001,-3.67E-10,,
,5.093001,-3.68E-10,,
,5.095001,-3.70E-10,,
,5.097001,-3.73E-10,,
,5.099001,-3.75E-10,,
,5.101001,-3.76E-10,,
,5.103001,-3.76E-10,,
,5.105001,-3.76E-10,,
,5.107001,-3.75E-10,,
,5.109001,-3.76E-10,,
,5.111001,-3.77E-10,,
,5.113001,-3.79E-10,,
,5.115001,-3.80E-10,,
,5.117001,-3.81E-10,,
,5.119001,-3.81E-10,,
,5.121001,-3.80E-10,,
,5.123001,-3.79E-10,,
,5.125001,-3.79E-10,,
,5.127001,-3.79E-10,,
,5.129001,-3.80E-10,,
,5.131001,-3.82E-10,,
,5.133001,-3.83E-10,,
,5.135001,-3.83E-10,,
,5.137001,-3.82E-10,,
,5.139001,-3.80E-10,,
,5.141001,-3.78E-10,,
,5.143001,-3.78E-10,,
,5.145001,-3.78E-10,,
,5.147001,-3.78E-10,,
,5.149001,-3.79E-10,,
,5.151001,-3.78E-10,,
,5.153001,-3.77E-10,,
,5.155001,-3.76E-10,,
,5.157001,-3.74E-10,,
,5.159001,-3.73E-10,,
,5.161001,-3.74E-10,,
,5.163001,-3.74E-10,,
,5.165001,-3.75E-10,,
,5.167001,-3.75E-10,,
,5.169001,-3.74E-10,,
,5.171001,-3.72E-10,,
,5.173001,-3.70E-10,,
,5.175001,-3.69E-10,,
,5.177001,-3.68E-10,,
,5.179001,-3.69E-10,,
,5.181001,-3.70E-10,,
,5.183001,-3.70E-10,,
,5.185001,-3.70E-10,,
,5.187001,-3.68E-10,,
,5.189001,-3.67E-10,,
,5.191001,-3.65E-10,,
,5.193001,-3.65E-10,,
,5.195001,-3.65E-10,,
,5.197001,-3.66E-10,,
,5.199001,-3.67E-10,,
,5.201001,-3.67E-10,,
,5.203001,-3.66E-10,,
,5.205001,-3.64E-10,,
,5.207001,-3.62E-10,,
,5.209001,-3.61E-10,,
,5.211001,-3.61E-10,,
,5.213001,-3.61E-10,,
,5.215001,-3.63E-10,,
,5.217001,-3.63E-10,,
,5.219001,-3.63E-10,,
,5.221001,-3.63E-10,,
,5.223001,-3.62E-10,,
,5.225001,-3.62E-10,,
,5.227001,-3.63E-10,,
,5.229001,-3.65E-10,,
,5.231001,-3.67E-10,,
,5.233001,-3.69E-10,,
,5.235001,-3.69E-10,,
,5.237001,-3.69E-10,,
,5.239001,-3.69E-10,,
,5.241001,-3.69E-10,,
,5.243001,-3.69E-10,,
,5.245001,-3.70E-10,,
,5.247001,-3.73E-10,,
,5.249001,-3.75E-10,,
,5.251001,-3.76E-10,,
,5.253001,-3.76E-10,,
,5.255001,-3.77E-10,,
,5.257001,-3.77E-10,,
,5.259001,-3.78E-10,,
,5.261001,-3.80E-10,,
,5.263001,-3.83E-10,,
,5.265001,-3.86E-10,,
,5.267001,-3.88E-10,,
,5.269001,-3.89E-10,,
,5.271001,-3.89E-10,,
,5.273001,-3.88E-10,,
,5.275001,-3.89E-10,,
,5.277001,-3.90E-10,,
,5.279001,-3.92E-10,,
,5.281001,-3.95E-10,,
,5.283001,-3.97E-10,,
,5.285001,-3.99E-10,,
,5.287001,-4.00E-10,,
,5.289001,-4.00E-10,,
,5.291001,-4.00E-10,,
,5.293001,-4.01E-10,,
,5.295001,-4.04E-10,,
,5.297001,-4.06E-10,,
,5.299001,-4.09E-10,,
,5.301001,-4.11E-10,,
,5.303001,-4.12E-10,,
,5.305001,-4.12E-10,,
,5.307001,-4.12E-10,,
,5.309001,-4.12E-10,,
,5.311001,-4.13E-10,,
,5.313001,-4.15E-10,,
,5.315001,-4.16E-10,,
,5.317001,-4.17E-10,,
,5.319001,-4.17E-10,,
,5.321001,-4.17E-10,,
,5.323001,-4.16E-10,,
,5.325001,-4.16E-10,,
,5.327001,-4.16E-10,,
,5.329001,-4.18E-10,,
,5.331001,-4.20E-10,,
,5.333001,-4.21E-10,,
,5.335001,-4.21E-10,,
,5.337001,-4.21E-10,,
,5.339001,-4.20E-10,,
,5.341001,-4.18E-10,,
,5.343001,-4.18E-10,,
,5.345001,-4.19E-10,,
,5.347001,-4.20E-10,,
,5.349001,-4.21E-10,,
,5.351001,-4.22E-10,,
,5.353001,-4.21E-10,,
,5.355001,-4.20E-10,,
,5.357001,-4.19E-10,,
,5.359001,-4.18E-10,,
,5.361001,-4.19E-10,,
,5.363001,-4.20E-10,,
,5.365001,-4.21E-10,,
,5.367001,-4.21E-10,,
,5.369001,-4.20E-10,,
,5.371001,-4.19E-10,,
,5.373001,-4.17E-10,,
,5.375001,-4.15E-10,,
,5.377001,-4.14E-10,,
,5.379001,-4.14E-10,,
,5.381001,-4.14E-10,,
,5.383001,-4.13E-10,,
,5.385001,-4.11E-10,,
,5.387001,-4.09E-10,,
,5.389001,-4.07E-10,,
,5.391001,-4.05E-10,,
,5.393001,-4.03E-10,,
,5.395001,-4.03E-10,,
,5.397001,-4.03E-10,,
,5.399001,-4.03E-10,,
,5.401001,-4.01E-10,,
,5.403001,-3.99E-10,,
,5.405001,-3.96E-10,,
,5.407001,-3.93E-10,,
,5.409001,-3.90E-10,,
,5.411001,-3.89E-10,,
,5.413001,-3.88E-10,,
,5.415001,-3.87E-10,,
,5.417001,-3.85E-10,,
,5.419001,-3.83E-10,,
,5.421001,-3.80E-10,,
,5.423001,-3.78E-10,,
,5.425001,-3.75E-10,,
,5.427001,-3.74E-10,,
,5.429001,-3.73E-10,,
,5.431001,-3.72E-10,,
,5.433001,-3.71E-10,,
,5.435001,-3.68E-10,,
,5.437001,-3.66E-10,,
,5.439001,-3.62E-10,,
,5.441001,-3.59E-10,,
,5.443001,-3.57E-10,,
,5.445001,-3.56E-10,,
,5.447001,-3.55E-10,,
,5.449001,-3.54E-10,,
,5.451001,-3.52E-10,,
,5.453001,-3.49E-10,,
,5.455001,-3.46E-10,,
,5.457001,-3.43E-10,,
,5.459001,-3.41E-10,,
,5.461001,-3.40E-10,,
,5.463001,-3.39E-10,,
,5.465001,-3.38E-10,,
,5.467001,-3.36E-10,,
,5.469001,-3.34E-10,,
,5.471001,-3.30E-10,,
,5.473001,-3.27E-10,,
,5.475001,-3.23E-10,,
,5.477001,-3.21E-10,,
,5.479001,-3.20E-10,,
,5.481001,-3.19E-10,,
,5.483001,-3.18E-10,,
,5.485001,-3.16E-10,,
,5.487001,-3.13E-10,,
,5.489001,-3.10E-10,,
,5.491001,-3.06E-10,,
,5.493001,-3.04E-10,,
,5.495001,-3.03E-10,,
,5.497001,-3.02E-10,,
,5.499001,-3.01E-10,,
,5.501001,-2.99E-10,,
,5.503001,-2.97E-10,,
,5.505001,-2.93E-10,,
,5.507001,-2.90E-10,,
,5.509001,-2.87E-10,,
,5.511001,-2.86E-10,,
,5.513001,-2.85E-10,,
,5.515001,-2.84E-10,,
,5.517001,-2.83E-10,,
,5.519001,-2.81E-10,,
,5.521001,-2.79E-10,,
,5.523001,-2.76E-10,,
,5.525001,-2.74E-10,,
,5.527001,-2.73E-10,,
,5.529001,-2.73E-10,,
,5.531001,-2.73E-10,,
,5.533001,-2.73E-10,,
,5.535001,-2.72E-10,,
,5.537001,-2.70E-10,,
,5.539001,-2.67E-10,,
,5.541001,-2.65E-10,,
,5.543001,-2.64E-10,,
,5.545001,-2.63E-10,,
,5.547001,-2.64E-10,,
,5.549001,-2.63E-10,,
,5.551001,-2.63E-10,,
,5.553001,-2.61E-10,,
,5.555001,-2.59E-10,,
,5.557001,-2.57E-10,,
,5.559001,-2.56E-10,,
,5.561001,-2.56E-10,,
,5.563001,-2.56E-10,,
,5.565001,-2.56E-10,,
,5.567001,-2.55E-10,,
,5.569001,-2.54E-10,,
,5.571001,-2.53E-10,,
,5.573001,-2.50E-10,,
,5.575001,-2.49E-10,,
,5.577001,-2.47E-10,,
,5.579001,-2.48E-10,,
,5.581001,-2.48E-10,,
,5.583001,-2.48E-10,,
,5.585001,-2.47E-10,,
,5.587001,-2.45E-10,,
,5.589001,-2.43E-10,,
,5.591001,-2.41E-10,,
,5.593001,-2.40E-10,,
,5.595001,-2.40E-10,,
,5.597001,-2.41E-10,,
,5.599001,-2.41E-10,,
,5.601001,-2.41E-10,,
,5.603001,-2.40E-10,,
,5.605001,-2.38E-10,,
,5.607001,-2.36E-10,,
,5.609001,-2.34E-10,,
,5.611001,-2.34E-10,,
,5.613001,-2.34E-10,,
,5.615001,-2.34E-10,,
,5.617001,-2.34E-10,,
,5.619001,-2.33E-10,,
,5.621001,-2.31E-10,,
,5.623001,-2.29E-10,,
,5.625001,-2.27E-10,,
,5.627001,-2.26E-10,,
,5.629001,-2.26E-10,,
,5.631001,-2.26E-10,,
,5.633001,-2.26E-10,,
,5.635001,-2.25E-10,,
,5.637001,-2.24E-10,,
,5.639001,-2.21E-10,,
,5.641001,-2.19E-10,,
,5.643001,-2.18E-10,,
,5.645001,-2.17E-10,,
,5.647001,-2.16E-10,,
,5.649001,-2.15E-10,,
,5.651001,-2.14E-10,,
,5.653001,-2.11E-10,,
,5.655001,-2.09E-10,,
,5.657001,-2.06E-10,,
,5.659001,-2.04E-10,,
,5.661001,-2.02E-10,,
,5.663001,-2.02E-10,,
,5.665001,-2.01E-10,,
,5.667001,-1.99E-10,,
,5.669001,-1.97E-10,,
,5.671001,-1.94E-10,,
,5.673001,-1.90E-10,,
,5.675001,-1.87E-10,,
,5.677001,-1.85E-10,,
,5.679001,-1.83E-10,,
,5.681001,-1.82E-10,,
,5.683001,-1.80E-10,,
,5.685001,-1.78E-10,,
,5.687001,-1.75E-10,,
,5.689001,-1.71E-10,,
,5.691001,-1.68E-10,,
,5.693001,-1.65E-10,,
,5.695001,-1.64E-10,,
,5.697001,-1.63E-10,,
,5.699001,-1.62E-10,,
,5.701001,-1.60E-10,,
,5.703001,-1.57E-10,,
,5.705001,-1.54E-10,,
,5.707001,-1.50E-10,,
,5.709001,-1.47E-10,,
,5.711001,-1.45E-10,,
,5.713001,-1.43E-10,,
,5.715001,-1.42E-10,,
,5.717001,-1.39E-10,,
,5.719001,-1.36E-10,,
,5.721001,-1.33E-10,,
,5.723001,-1.29E-10,,
,5.725001,-1.26E-10,,
,5.727001,-1.24E-10,,
,5.729001,-1.23E-10,,
,5.731001,-1.22E-10,,
,5.733001,-1.20E-10,,
,5.735001,-1.18E-10,,
,5.737001,-1.14E-10,,
,5.739001,-1.10E-10,,
,5.741001,-1.06E-10,,
,5.743001,-1.02E-10,,
,5.745001,-1.00E-10,,
,5.747001,-9.83E-11,,
,5.749001,-9.62E-11,,
,5.751001,-9.32E-11,,
,5.753001,-8.97E-11,,
,5.755001,-8.56E-11,,
,5.757001,-8.15E-11,,
,5.759001,-7.79E-11,,
,5.761001,-7.51E-11,,
,5.763001,-7.28E-11,,
,5.765001,-7.07E-11,,
,5.767001,-6.77E-11,,
,5.769001,-6.40E-11,,
,5.771001,-5.95E-11,,
,5.773001,-5.49E-11,,
,5.775001,-5.04E-11,,
,5.777001,-4.66E-11,,
,5.779001,-4.35E-11,,
,5.781001,-4.08E-11,,
,5.783001,-3.77E-11,,
,5.785001,-3.39E-11,,
,5.787001,-2.93E-11,,
,5.789001,-2.43E-11,,
,5.791001,-1.99E-11,,
,5.793001,-1.61E-11,,
,5.795001,-1.36E-11,,
,5.797001,-1.11E-11,,
,5.799001,-8.51E-12,,
,5.801001,-4.86E-12,,
,5.803001,-2.40E-13,,
,5.805001,4.91E-12,,
,5.807001,9.85E-12,,
,5.809001,1.38E-11,,
,5.811001,1.68E-11,,
,5.813001,1.93E-11,,
,5.815001,2.18E-11,,
,5.817001,2.45E-11,,
,5.819001,2.77E-11,,
,5.821001,3.15E-11,,
,5.823001,3.58E-11,,
,5.825001,3.97E-11,,
,5.827001,4.25E-11,,
,5.829001,4.43E-11,,
,5.831001,4.56E-11,,
,5.833001,4.75E-11,,
,5.835001,4.99E-11,,
,5.837001,5.32E-11,,
,5.839001,5.68E-11,,
,5.841001,6.03E-11,,
,5.843001,6.28E-11,,
,5.845001,6.45E-11,,
,5.847001,6.52E-11,,
,5.849001,6.62E-11,,
,5.851001,6.75E-11,,
,5.853001,6.96E-11,,
,5.855001,7.22E-11,,
,5.857001,7.44E-11,,
,5.859001,7.59E-11,,
,5.861001,7.63E-11,,
,5.863001,7.60E-11,,
,5.865001,7.58E-11,,
,5.867001,7.61E-11,,
,5.869001,7.73E-11,,
,5.871001,7.92E-11,,
,5.873001,8.10E-11,,
,5.875001,8.26E-11,,
,5.877001,8.29E-11,,
,5.879001,8.26E-11,,
,5.881001,8.21E-11,,
,5.883001,8.22E-11,,
,5.885001,8.30E-11,,
,5.887001,8.42E-11,,
,5.889001,8.62E-11,,
,5.891001,8.78E-11,,
,5.893001,8.88E-11,,
,5.895001,8.83E-11,,
,5.897001,8.77E-11,,
,5.899001,8.73E-11,,
,5.901001,8.77E-11,,
,5.903001,8.89E-11,,
,5.905001,9.09E-11,,
,5.907001,9.29E-11,,
,5.909001,9.41E-11,,
,5.911001,9.46E-11,,
,5.913001,9.43E-11,,
,5.915001,9.42E-11,,
,5.917001,9.43E-11,,
,5.919001,9.53E-11,,
,5.921001,9.70E-11,,
,5.923001,9.88E-11,,
,5.925001,1.00E-10,,
,5.927001,1.00E-10,,
,5.929001,9.94E-11,,
,5.931001,9.81E-11,,
,5.933001,9.73E-11,,
,5.935001,9.76E-11,,
,5.937001,9.85E-11,,
,5.939001,1.00E-10,,
,5.941001,1.02E-10,,
,5.943001,1.02E-10,,
,5.945001,1.02E-10,,
,5.947001,1.01E-10,,
,5.949001,1.00E-10,,
,5.951001,1.00E-10,,
,5.953001,1.01E-10,,
,5.955001,1.02E-10,,
,5.957001,1.03E-10,,
,5.959001,1.03E-10,,
,5.961001,1.03E-10,,
,5.963001,1.02E-10,,
,5.965001,1.01E-10,,
,5.967001,1.00E-10,,
,5.969001,1.00E-10,,
,5.971001,1.01E-10,,
,5.973001,1.02E-10,,
,5.975001,1.03E-10,,
,5.977001,1.02E-10,,
,5.979001,1.01E-10,,
,5.981001,9.96E-11,,
,5.983001,9.85E-11,,
,5.985001,9.85E-11,,
,5.987001,9.92E-11,,
,5.989001,1.00E-10,,
,5.991001,1.01E-10,,
,5.993001,1.00E-10,,
,5.995001,9.84E-11,,
,5.997001,9.66E-11,,
,5.999001,9.51E-11,,
,6.001001,9.46E-11,,
,6.003001,9.48E-11,,
,6.005001,9.52E-11,,
,6.007001,9.60E-11,,
,6.009001,9.57E-11,,
,6.011001,9.48E-11,,
,6.013001,9.32E-11,,
,6.015001,9.15E-11,,
,6.017001,9.05E-11,,
,6.019001,8.97E-11,,
,6.021001,9.00E-11,,
,6.023001,9.05E-11,,
,6.025001,9.06E-11,,
,6.027001,8.95E-11,,
,6.029001,8.78E-11,,
,6.031001,8.58E-11,,
,6.033001,8.44E-11,,
,6.035001,8.36E-11,,
,6.037001,8.37E-11,,
,6.039001,8.42E-11,,
,6.041001,8.47E-11,,
,6.043001,8.45E-11,,
,6.045001,8.31E-11,,
,6.047001,8.12E-11,,
,6.049001,7.97E-11,,
,6.051001,7.89E-11,,
,6.053001,7.87E-11,,
,6.055001,7.88E-11,,
,6.057001,7.89E-11,,
,6.059001,7.86E-11,,
,6.061001,7.71E-11,,
,6.063001,7.47E-11,,
,6.065001,7.23E-11,,
,6.067001,7.05E-11,,
,6.069001,6.99E-11,,
,6.071001,6.98E-11,,
,6.073001,7.00E-11,,
,6.075001,6.96E-11,,
,6.077001,6.84E-11,,
,6.079001,6.65E-11,,
,6.081001,6.44E-11,,
,6.083001,6.28E-11,,
,6.085001,6.17E-11,,
,6.087001,6.12E-11,,
,6.089001,6.11E-11,,
,6.091001,6.07E-11,,
,6.093001,5.99E-11,,
,6.095001,5.77E-11,,
,6.097001,5.56E-11,,
,6.099001,5.38E-11,,
,6.101001,5.30E-11,,
,6.103001,5.28E-11,,
,6.105001,5.30E-11,,
,6.107001,5.30E-11,,
,6.109001,5.25E-11,,
,6.111001,5.10E-11,,
,6.113001,4.88E-11,,
,6.115001,4.67E-11,,
,6.117001,4.51E-11,,
,6.119001,4.44E-11,,
,6.121001,4.41E-11,,
,6.123001,4.42E-11,,
,6.125001,4.38E-11,,
,6.127001,4.26E-11,,
,6.129001,4.01E-11,,
,6.131001,3.74E-11,,
,6.133001,3.55E-11,,
,6.135001,3.45E-11,,
,6.137001,3.43E-11,,
,6.139001,3.43E-11,,
,6.141001,3.45E-11,,
,6.143001,3.40E-11,,
,6.145001,3.26E-11,,
,6.147001,3.05E-11,,
,6.149001,2.84E-11,,
,6.151001,2.69E-11,,
,6.153001,2.62E-11,,
,6.155001,2.61E-11,,
,6.157001,2.62E-11,,
,6.159001,2.61E-11,,
,6.161001,2.48E-11,,
,6.163001,2.26E-11,,
,6.165001,2.02E-11,,
,6.167001,1.88E-11,,
,6.169001,1.81E-11,,
,6.171001,1.84E-11,,
,6.173001,1.90E-11,,
,6.175001,1.94E-11,,
,6.177001,1.88E-11,,
,6.179001,1.73E-11,,
,6.181001,1.53E-11,,
,6.183001,1.39E-11,,
,6.185001,1.34E-11,,
,6.187001,1.38E-11,,
,6.189001,1.47E-11,,
,6.191001,1.54E-11,,
,6.193001,1.54E-11,,
,6.195001,1.44E-11,,
,6.197001,1.26E-11,,
,6.199001,1.15E-11,,
,6.201001,1.11E-11,,
,6.203001,1.16E-11,,
,6.205001,1.22E-11,,
,6.207001,1.32E-11,,
,6.209001,1.36E-11,,
,6.211001,1.30E-11,,
,6.213001,1.15E-11,,
,6.215001,9.96E-12,,
,6.217001,9.31E-12,,
,6.219001,9.31E-12,,
,6.221001,1.02E-11,,
,6.223001,1.10E-11,,
,6.225001,1.17E-11,,
,6.227001,1.14E-11,,
,6.229001,1.04E-11,,
,6.231001,9.10E-12,,
,6.233001,8.03E-12,,
,6.235001,7.81E-12,,
,6.237001,8.35E-12,,
,6.239001,9.42E-12,,
,6.241001,1.03E-11,,
,6.243001,1.06E-11,,
,6.245001,9.74E-12,,
,6.247001,8.56E-12,,
,6.249001,7.38E-12,,
,6.251001,7.38E-12,,
,6.253001,8.03E-12,,
,6.255001,9.42E-12,,
,6.257001,1.08E-11,,
,6.259001,1.17E-11,,
,6.261001,1.14E-11,,
,6.263001,1.06E-11,,
,6.265001,9.96E-12,,
,6.267001,1.01E-11,,
,6.269001,1.11E-11,,
,6.271001,1.25E-11,,
,6.273001,1.43E-11,,
,6.275001,1.50E-11,,
,6.277001,1.54E-11,,
,6.279001,1.48E-11,,
,6.281001,1.43E-11,,
,6.283001,1.37E-11,,
,6.285001,1.43E-11,,
,6.287001,1.52E-11,,
,6.289001,1.69E-11,,
,6.291001,1.84E-11,,
,6.293001,1.94E-11,,
,6.295001,1.94E-11,,
,6.297001,1.89E-11,,
,6.299001,1.87E-11,,
,6.301001,1.91E-11,,
,6.303001,2.05E-11,,
,6.305001,2.25E-11,,
,6.307001,2.47E-11,,
,6.309001,2.61E-11,,
,6.311001,2.65E-11,,
,6.313001,2.63E-11,,
,6.315001,2.61E-11,,
,6.317001,2.66E-11,,
,6.319001,2.82E-11,,
,6.321001,3.05E-11,,
,6.323001,3.27E-11,,
,6.325001,3.43E-11,,
,6.327001,3.51E-11,,
,6.329001,3.49E-11,,
,6.331001,3.41E-11,,
,6.333001,3.38E-11,,
,6.335001,3.45E-11,,
,6.337001,3.63E-11,,
,6.339001,3.83E-11,,
,6.341001,4.01E-11,,
,6.343001,4.11E-11,,
,6.345001,4.13E-11,,
,6.347001,4.10E-11,,
,6.349001,4.09E-11,,
,6.351001,4.18E-11,,
,6.353001,4.33E-11,,
,6.355001,4.56E-11,,
,6.357001,4.74E-11,,
,6.359001,4.88E-11,,
,6.361001,4.88E-11,,
,6.363001,4.81E-11,,
,6.365001,4.71E-11,,
,6.367001,4.71E-11,,
,6.369001,4.76E-11,,
,6.371001,4.85E-11,,
,6.373001,4.96E-11,,
,6.375001,5.02E-11,,
,6.377001,5.05E-11,,
,6.379001,4.98E-11,,
,6.381001,4.89E-11,,
,6.383001,4.84E-11,,
,6.385001,4.85E-11,,
,6.387001,4.97E-11,,
,6.389001,5.10E-11,,
,6.391001,5.21E-11,,
,6.393001,5.24E-11,,
,6.395001,5.16E-11,,
,6.397001,5.03E-11,,
,6.399001,4.93E-11,,
,6.401001,4.88E-11,,
,6.403001,4.95E-11,,
,6.405001,5.08E-11,,
,6.407001,5.23E-11,,
,6.409001,5.28E-11,,
,6.411001,5.24E-11,,
,6.413001,5.14E-11,,
,6.415001,5.08E-11,,
,6.417001,5.09E-11,,
,6.419001,5.16E-11,,
,6.421001,5.28E-11,,
,6.423001,5.43E-11,,
,6.425001,5.54E-11,,
,6.427001,5.55E-11,,
,6.429001,5.43E-11,,
,6.431001,5.30E-11,,
,6.433001,5.23E-11,,
,6.435001,5.24E-11,,
,6.437001,5.30E-11,,
,6.439001,5.39E-11,,
,6.441001,5.44E-11,,
,6.443001,5.44E-11,,
,6.445001,5.33E-11,,
,6.447001,5.18E-11,,
,6.449001,5.06E-11,,
,6.451001,5.03E-11,,
,6.453001,5.09E-11,,
,6.455001,5.15E-11,,
,6.457001,5.23E-11,,
,6.459001,5.23E-11,,
,6.461001,5.15E-11,,
,6.463001,4.97E-11,,
,6.465001,4.79E-11,,
,6.467001,4.68E-11,,
,6.469001,4.68E-11,,
,6.471001,4.74E-11,,
,6.473001,4.83E-11,,
,6.475001,4.88E-11,,
,6.477001,4.86E-11,,
,6.479001,4.74E-11,,
,6.481001,4.60E-11,,
,6.483001,4.52E-11,,
,6.485001,4.52E-11,,
,6.487001,4.59E-11,,
,6.489001,4.70E-11,,
,6.491001,4.79E-11,,
,6.493001,4.80E-11,,
,6.495001,4.68E-11,,
,6.497001,4.53E-11,,
,6.499001,4.41E-11,,
,6.501001,4.39E-11,,
,6.503001,4.41E-11,,
,6.505001,4.45E-11,,
,6.507001,4.54E-11,,
,6.509001,4.57E-11,,
,6.511001,4.53E-11,,
,6.513001,4.40E-11,,
,6.515001,4.28E-11,,
,6.517001,4.26E-11,,
,6.519001,4.31E-11,,
,6.521001,4.42E-11,,
,6.523001,4.54E-11,,
,6.525001,4.62E-11,,
,6.527001,4.60E-11,,
,6.529001,4.46E-11,,
,6.531001,4.28E-11,,
,6.533001,4.17E-11,,
,6.535001,4.17E-11,,
,6.537001,4.24E-11,,
,6.539001,4.36E-11,,
,6.541001,4.48E-11,,
,6.543001,4.54E-11,,
,6.545001,4.51E-11,,
,6.547001,4.39E-11,,
,6.549001,4.36E-11,,
,6.551001,4.40E-11,,
,6.553001,4.53E-11,,
,6.555001,4.68E-11,,
,6.557001,4.80E-11,,
,6.559001,4.88E-11,,
,6.561001,4.87E-11,,
,6.563001,4.83E-11,,
,6.565001,4.77E-11,,
,6.567001,4.76E-11,,
,6.569001,4.82E-11,,
,6.571001,4.96E-11,,
,6.573001,5.12E-11,,
,6.575001,5.26E-11,,
,6.577001,5.27E-11,,
,6.579001,5.21E-11,,
,6.581001,5.16E-11,,
,6.583001,5.18E-11,,
,6.585001,5.29E-11,,
,6.587001,5.44E-11,,
,6.589001,5.66E-11,,
,6.591001,5.83E-11,,
,6.593001,5.89E-11,,
,6.595001,5.83E-11,,
,6.597001,5.73E-11,,
,6.599001,5.70E-11,,
,6.601001,5.74E-11,,
,6.603001,5.88E-11,,
,6.605001,6.06E-11,,
,6.607001,6.29E-11,,
,6.609001,6.45E-11,,
,6.611001,6.51E-11,,
,6.613001,6.49E-11,,
,6.615001,6.47E-11,,
,6.617001,6.55E-11,,
,6.619001,6.68E-11,,
,6.621001,6.91E-11,,
,6.623001,7.14E-11,,
,6.625001,7.31E-11,,
,6.627001,7.36E-11,,
,6.629001,7.33E-11,,
,6.631001,7.31E-11,,
,6.633001,7.33E-11,,
,6.635001,7.42E-11,,
,6.637001,7.57E-11,,
,6.639001,7.75E-11,,
,6.641001,7.95E-11,,
,6.643001,8.11E-11,,
,6.645001,8.17E-11,,
,6.647001,8.19E-11,,
,6.649001,8.22E-11,,
,6.651001,8.34E-11,,
,6.653001,8.52E-11,,
,6.655001,8.76E-11,,
,6.657001,9.02E-11,,
,6.659001,9.19E-11,,
,6.661001,9.23E-11,,
,6.663001,9.20E-11,,
,6.665001,9.19E-11,,
,6.667001,9.26E-11,,
,6.669001,9.39E-11,,
,6.671001,9.61E-11,,
,6.673001,9.86E-11,,
,6.675001,1.01E-10,,
,6.677001,1.03E-10,,
,6.679001,1.03E-10,,
,6.681001,1.04E-10,,
,6.683001,1.05E-10,,
,6.685001,1.08E-10,,
,6.687001,1.11E-10,,
,6.689001,1.14E-10,,
,6.691001,1.17E-10,,
,6.693001,1.19E-10,,
,6.695001,1.20E-10,,
,6.697001,1.21E-10,,
,6.699001,1.22E-10,,
,6.701001,1.24E-10,,
,6.703001,1.27E-10,,
,6.705001,1.30E-10,,
,6.707001,1.34E-10,,
,6.709001,1.37E-10,,
,6.711001,1.39E-10,,
,6.713001,1.40E-10,,
,6.715001,1.41E-10,,
,6.717001,1.44E-10,,
,6.719001,1.47E-10,,
,6.721001,1.50E-10,,
,6.723001,1.54E-10,,
,6.725001,1.58E-10,,
,6.727001,1.60E-10,,
,6.729001,1.61E-10,,
,6.731001,1.62E-10,,
,6.733001,1.64E-10,,
,6.735001,1.66E-10,,
,6.737001,1.70E-10,,
,6.739001,1.74E-10,,
,6.741001,1.78E-10,,
,6.743001,1.81E-10,,
,6.745001,1.83E-10,,
,6.747001,1.85E-10,,
,6.749001,1.88E-10,,
,6.751001,1.92E-10,,
,6.753001,1.96E-10,,
,6.755001,2.01E-10,,
,6.757001,2.05E-10,,
,6.759001,2.09E-10,,
,6.761001,2.11E-10,,
,6.763001,2.13E-10,,
,6.765001,2.15E-10,,
,6.767001,2.18E-10,,
,6.769001,2.22E-10,,
,6.771001,2.26E-10,,
,6.773001,2.31E-10,,
,6.775001,2.35E-10,,
,6.777001,2.39E-10,,
,6.779001,2.41E-10,,
,6.781001,2.43E-10,,
,6.783001,2.46E-10,,
,6.785001,2.49E-10,,
,6.787001,2.53E-10,,
,6.789001,2.58E-10,,
,6.791001,2.61E-10,,
,6.793001,2.64E-10,,
,6.795001,2.66E-10,,
,6.797001,2.67E-10,,
,6.799001,2.68E-10,,
,6.801001,2.70E-10,,
,6.803001,2.73E-10,,
,6.805001,2.76E-10,,
,6.807001,2.80E-10,,
,6.809001,2.83E-10,,
,6.811001,2.85E-10,,
,6.813001,2.86E-10,,
,6.815001,2.87E-10,,
,6.817001,2.89E-10,,
,6.819001,2.92E-10,,
,6.821001,2.95E-10,,
,6.823001,2.98E-10,,
,6.825001,3.00E-10,,
,6.827001,3.02E-10,,
,6.829001,3.02E-10,,
,6.831001,3.02E-10,,
,6.833001,3.02E-10,,
,6.835001,3.02E-10,,
,6.837001,3.04E-10,,
,6.839001,3.06E-10,,
,6.841001,3.08E-10,,
,6.843001,3.09E-10,,
,6.845001,3.09E-10,,
,6.847001,3.09E-10,,
,6.849001,3.08E-10,,
,6.851001,3.09E-10,,
,6.853001,3.10E-10,,
,6.855001,3.12E-10,,
,6.857001,3.13E-10,,
,6.859001,3.14E-10,,
,6.861001,3.14E-10,,
,6.863001,3.12E-10,,
,6.865001,3.11E-10,,
,6.867001,3.10E-10,,
,6.869001,3.11E-10,,
,6.871001,3.11E-10,,
,6.873001,3.12E-10,,
,6.875001,3.13E-10,,
,6.877001,3.12E-10,,
,6.879001,3.11E-10,,
,6.881001,3.09E-10,,
,6.883001,3.07E-10,,
,6.885001,3.07E-10,,
,6.887001,3.07E-10,,
,6.889001,3.08E-10,,
,6.891001,3.08E-10,,
,6.893001,3.07E-10,,
,6.895001,3.05E-10,,
,6.897001,3.03E-10,,
,6.899001,3.00E-10,,
,6.901001,2.98E-10,,
,6.903001,2.97E-10,,
,6.905001,2.96E-10,,
,6.907001,2.96E-10,,
,6.909001,2.94E-10,,
,6.911001,2.91E-10,,
,6.913001,2.87E-10,,
,6.915001,2.84E-10,,
,6.917001,2.81E-10,,
,6.919001,2.79E-10,,
,6.921001,2.78E-10,,
,6.923001,2.76E-10,,
,6.925001,2.74E-10,,
,6.927001,2.71E-10,,
,6.929001,2.67E-10,,
,6.931001,2.62E-10,,
,6.933001,2.58E-10,,
,6.935001,2.55E-10,,
,6.937001,2.52E-10,,
,6.939001,2.50E-10,,
,6.941001,2.48E-10,,
,6.943001,2.45E-10,,
,6.945001,2.41E-10,,
,6.947001,2.36E-10,,
,6.949001,2.32E-10,,
,6.951001,2.28E-10,,
,6.953001,2.25E-10,,
,6.955001,2.23E-10,,
,6.957001,2.20E-10,,
,6.959001,2.17E-10,,
,6.961001,2.13E-10,,
,6.963001,2.08E-10,,
,6.965001,2.03E-10,,
,6.967001,1.99E-10,,
,6.969001,1.96E-10,,
,6.971001,1.93E-10,,
,6.973001,1.91E-10,,
,6.975001,1.89E-10,,
,6.977001,1.85E-10,,
,6.979001,1.81E-10,,
,6.981001,1.77E-10,,
,6.983001,1.73E-10,,
,6.985001,1.70E-10,,
,6.987001,1.68E-10,,
,6.989001,1.66E-10,,
,6.991001,1.64E-10,,
,6.993001,1.61E-10,,
,6.995001,1.57E-10,,
,6.997001,1.52E-10,,
,6.999001,1.47E-10,,
,7.001001,1.43E-10,,
,7.003001,1.40E-10,,
,7.005001,1.38E-10,,
,7.007001,1.36E-10,,
,7.009001,1.33E-10,,
,7.011001,1.30E-10,,
,7.013001,1.25E-10,,
,7.015001,1.21E-10,,
,7.017001,1.18E-10,,
,7.019001,1.15E-10,,
,7.021001,1.14E-10,,
,7.023001,1.12E-10,,
,7.025001,1.11E-10,,
,7.027001,1.07E-10,,
,7.029001,1.03E-10,,
,7.031001,9.94E-11,,
,7.033001,9.62E-11,,
,7.035001,9.36E-11,,
,7.037001,9.19E-11,,
,7.039001,9.09E-11,,
,7.041001,8.98E-11,,
,7.043001,8.79E-11,,
,7.045001,8.47E-11,,
,7.047001,8.10E-11,,
,7.049001,7.79E-11,,
,7.051001,7.59E-11,,
,7.053001,7.47E-11,,
,7.055001,7.38E-11,,
,7.057001,7.32E-11,,
,7.059001,7.18E-11,,
,7.061001,6.93E-11,,
,7.063001,6.60E-11,,
,7.065001,6.29E-11,,
,7.067001,6.07E-11,,
,7.069001,5.94E-11,,
,7.071001,5.90E-11,,
,7.073001,5.88E-11,,
,7.075001,5.82E-11,,
,7.077001,5.68E-11,,
,7.079001,5.46E-11,,
,7.081001,5.25E-11,,
,7.083001,5.08E-11,,
,7.085001,5.02E-11,,
,7.087001,5.04E-11,,
,7.089001,5.10E-11,,
,7.091001,5.10E-11,,
,7.093001,4.99E-11,,
,7.095001,4.77E-11,,
,7.097001,4.51E-11,,
,7.099001,4.28E-11,,
,7.101001,4.14E-11,,
,7.103001,4.12E-11,,
,7.105001,4.16E-11,,
,7.107001,4.24E-11,,
,7.109001,4.23E-11,,
,7.111001,4.13E-11,,
,7.113001,3.93E-11,,
,7.115001,3.78E-11,,
,7.117001,3.69E-11,,
,7.119001,3.68E-11,,
,7.121001,3.71E-11,,
,7.123001,3.75E-11,,
,7.125001,3.79E-11,,
,7.127001,3.71E-11,,
,7.129001,3.54E-11,,
,7.131001,3.33E-11,,
,7.133001,3.14E-11,,
,7.135001,3.06E-11,,
,7.137001,3.05E-11,,
,7.139001,3.09E-11,,
,7.141001,3.12E-11,,
,7.143001,3.09E-11,,
,7.145001,2.97E-11,,
,7.147001,2.81E-11,,
,7.149001,2.65E-11,,
,7.151001,2.61E-11,,
,7.153001,2.62E-11,,
,7.155001,2.71E-11,,
,7.157001,2.77E-11,,
,7.159001,2.76E-11,,
,7.161001,2.61E-11,,
,7.163001,2.37E-11,,
,7.165001,2.14E-11,,
,7.167001,2.03E-11,,
,7.169001,1.97E-11,,
,7.171001,2.01E-11,,
,7.173001,2.06E-11,,
,7.175001,2.09E-11,,
,7.177001,2.04E-11,,
,7.179001,1.89E-11,,
,7.181001,1.74E-11,,
,7.183001,1.64E-11,,
,7.185001,1.63E-11,,
,7.187001,1.70E-11,,
,7.189001,1.75E-11,,
,7.191001,1.80E-11,,
,7.193001,1.73E-11,,
,7.195001,1.59E-11,,
,7.197001,1.40E-11,,
,7.199001,1.23E-11,,
,7.201001,1.17E-11,,
,7.203001,1.16E-11,,
,7.205001,1.24E-11,,
,7.207001,1.35E-11,,
,7.209001,1.35E-11,,
,7.211001,1.28E-11,,
,7.213001,1.10E-11,,
,7.215001,9.85E-12,,
,7.217001,9.31E-12,,
,7.219001,9.53E-12,,
,7.221001,1.06E-11,,
,7.223001,1.18E-11,,
,7.225001,1.24E-11,,
,7.227001,1.19E-11,,
,7.229001,1.05E-11,,
,7.231001,8.89E-12,,
,7.233001,7.92E-12,,
,7.235001,7.70E-12,,
,7.237001,8.46E-12,,
,7.239001,9.21E-12,,
,7.241001,1.01E-11,,
,7.243001,1.02E-11,,
,7.245001,9.64E-12,,
,7.247001,8.24E-12,,
,7.249001,7.17E-12,,
,7.251001,7.17E-12,,
,7.253001,7.92E-12,,
,7.255001,8.99E-12,,
,7.257001,1.01E-11,,
,7.259001,1.06E-11,,
,7.261001,1.03E-11,,
,7.263001,8.56E-12,,
,7.265001,7.27E-12,,
,7.267001,6.42E-12,,
,7.269001,6.85E-12,,
,7.271001,7.81E-12,,
,7.273001,9.42E-12,,
,7.275001,1.07E-11,,
,7.277001,1.07E-11,,
,7.279001,9.74E-12,,
,7.281001,8.46E-12,,
,7.283001,7.92E-12,,
,7.285001,8.13E-12,,
,7.287001,9.31E-12,,
,7.289001,1.10E-11,,
,7.291001,1.26E-11,,
,7.293001,1.34E-11,,
,7.295001,1.30E-11,,
,7.297001,1.20E-11,,
,7.299001,1.10E-11,,
,7.301001,1.10E-11,,
,7.303001,1.16E-11,,
,7.305001,1.26E-11,,
,7.307001,1.36E-11,,
,7.309001,1.41E-11,,
,7.311001,1.36E-11,,
,7.313001,1.24E-11,,
,7.315001,1.14E-11,,
,7.317001,1.12E-11,,
,7.319001,1.18E-11,,
,7.321001,1.30E-11,,
,7.323001,1.45E-11,,
,7.325001,1.55E-11,,
,7.327001,1.58E-11,,
,7.329001,1.48E-11,,
,7.331001,1.36E-11,,
,7.333001,1.25E-11,,
,7.335001,1.22E-11,,
,7.337001,1.28E-11,,
,7.339001,1.40E-11,,
,7.341001,1.54E-11,,
,7.343001,1.58E-11,,
,7.345001,1.48E-11,,
,7.347001,1.35E-11,,
,7.349001,1.28E-11,,
,7.351001,1.31E-11,,
,7.353001,1.38E-11,,
,7.355001,1.53E-11,,
,7.357001,1.68E-11,,
,7.359001,1.80E-11,,
,7.361001,1.77E-11,,
,7.363001,1.67E-11,,
,7.365001,1.59E-11,,
,7.367001,1.59E-11,,
,7.369001,1.65E-11,,
,7.371001,1.75E-11,,
,7.373001,1.89E-11,,
,7.375001,1.96E-11,,
,7.377001,1.96E-11,,
,7.379001,1.85E-11,,
,7.381001,1.76E-11,,
,7.383001,1.69E-11,,
,7.385001,1.73E-11,,
,7.387001,1.84E-11,,
,7.389001,1.98E-11,,
,7.391001,2.12E-11,,
,7.393001,2.14E-11,,
,7.395001,2.11E-11,,
,7.397001,1.98E-11,,
,7.399001,1.90E-11,,
,7.401001,1.90E-11,,
,7.403001,1.99E-11,,
,7.405001,2.18E-11,,
,7.407001,2.33E-11,,
,7.409001,2.47E-11,,
,7.411001,2.48E-11,,
,7.413001,2.41E-11,,
,7.415001,2.36E-11,,
,7.417001,2.38E-11,,
,7.419001,2.52E-11,,
,7.421001,2.69E-11,,
,7.423001,2.92E-11,,
,7.425001,3.08E-11,,
,7.427001,3.12E-11,,
,7.429001,3.07E-11,,
,7.431001,2.95E-11,,
,7.433001,2.90E-11,,
,7.435001,2.90E-11,,
,7.437001,3.01E-11,,
,7.439001,3.15E-11,,
,7.441001,3.29E-11,,
,7.443001,3.34E-11,,
,7.445001,3.29E-11,,
,7.447001,3.19E-11,,
,7.449001,3.15E-11,,
,7.451001,3.20E-11,,
,7.453001,3.34E-11,,
,7.455001,3.49E-11,,
,7.457001,3.64E-11,,
,7.459001,3.71E-11,,
,7.461001,3.70E-11,,
,7.463001,3.60E-11,,
,7.465001,3.51E-11,,
,7.467001,3.47E-11,,
,7.469001,3.51E-11,,
,7.471001,3.62E-11,,
,7.473001,3.77E-11,,
,7.475001,3.88E-11,,
,7.477001,3.94E-11,,
,7.479001,3.86E-11,,
,7.481001,3.81E-11,,
,7.483001,3.81E-11,,
,7.485001,3.92E-11,,
,7.487001,4.09E-11,,
,7.489001,4.27E-11,,
,7.491001,4.46E-11,,
,7.493001,4.53E-11,,
,7.495001,4.50E-11,,
,7.497001,4.37E-11,,
,7.499001,4.28E-11,,
,7.501001,4.26E-11,,
,7.503001,4.33E-11,,
,7.505001,4.45E-11,,
,7.507001,4.61E-11,,
,7.509001,4.71E-11,,
,7.511001,4.75E-11,,
,7.513001,4.70E-11,,
,7.515001,4.64E-11,,
,7.517001,4.65E-11,,
,7.519001,4.74E-11,,
,7.521001,4.95E-11,,
,7.523001,5.13E-11,,
,7.525001,5.27E-11,,
,7.527001,5.31E-11,,
,7.529001,5.26E-11,,
,7.531001,5.18E-11,,
,7.533001,5.12E-11,,
,7.535001,5.16E-11,,
,7.537001,5.26E-11,,
,7.539001,5.43E-11,,
,7.541001,5.56E-11,,
,7.543001,5.63E-11,,
,7.545001,5.60E-11,,
,7.547001,5.56E-11,,
,7.549001,5.56E-11,,
,7.551001,5.66E-11,,
,7.553001,5.82E-11,,
,7.555001,6.04E-11,,
,7.557001,6.25E-11,,
,7.559001,6.40E-11,,
,7.561001,6.40E-11,,
,7.563001,6.32E-11,,
,7.565001,6.23E-11,,
,7.567001,6.23E-11,,
,7.569001,6.33E-11,,
,7.571001,6.48E-11,,
,7.573001,6.65E-11,,
,7.575001,6.77E-11,,
,7.577001,6.79E-11,,
,7.579001,6.74E-11,,
,7.581001,6.69E-11,,
,7.583001,6.72E-11,,
,7.585001,6.81E-11,,
,7.587001,7.00E-11,,
,7.589001,7.18E-11,,
,7.591001,7.38E-11,,
,7.593001,7.47E-11,,
,7.595001,7.48E-11,,
,7.597001,7.41E-11,,
,7.599001,7.33E-11,,
,7.601001,7.33E-11,,
,7.603001,7.42E-11,,
,7.605001,7.57E-11,,
,7.607001,7.74E-11,,
,7.609001,7.82E-11,,
,7.611001,7.86E-11,,
,7.613001,7.80E-11,,
,7.615001,7.76E-11,,
,7.617001,7.78E-11,,
,7.619001,7.89E-11,,
,7.621001,8.08E-11,,
,7.623001,8.27E-11,,
,7.625001,8.41E-11,,
,7.627001,8.44E-11,,
,7.629001,8.34E-11,,
,7.631001,8.21E-11,,
,7.633001,8.12E-11,,
,7.635001,8.14E-11,,
,7.637001,8.23E-11,,
,7.639001,8.38E-11,,
,7.641001,8.52E-11,,
,7.643001,8.58E-11,,
,7.645001,8.52E-11,,
,7.647001,8.42E-11,,
,7.649001,8.37E-11,,
,7.651001,8.44E-11,,
,7.653001,8.58E-11,,
,7.655001,8.77E-11,,
,7.657001,8.96E-11,,
,7.659001,9.11E-11,,
,7.661001,9.14E-11,,
,7.663001,9.08E-11,,
,7.665001,9.02E-11,,
,7.667001,9.05E-11,,
,7.669001,9.20E-11,,
,7.671001,9.43E-11,,
,7.673001,9.71E-11,,
,7.675001,9.96E-11,,
,7.677001,1.01E-10,,
,7.679001,1.02E-10,,
,7.681001,1.02E-10,,
,7.683001,1.04E-10,,
,7.685001,1.06E-10,,
,7.687001,1.09E-10,,
,7.689001,1.13E-10,,
,7.691001,1.17E-10,,
,7.693001,1.19E-10,,
,7.695001,1.21E-10,,
,7.697001,1.22E-10,,
,7.699001,1.23E-10,,
,7.701001,1.26E-10,,
,7.703001,1.29E-10,,
,7.705001,1.33E-10,,
,7.707001,1.37E-10,,
,7.709001,1.40E-10,,
,7.711001,1.43E-10,,
,7.713001,1.44E-10,,
,7.715001,1.46E-10,,
,7.717001,1.48E-10,,
,7.719001,1.51E-10,,
,7.721001,1.55E-10,,
,7.723001,1.59E-10,,
,7.725001,1.62E-10,,
,7.727001,1.64E-10,,
,7.729001,1.64E-10,,
,7.731001,1.64E-10,,
,7.733001,1.64E-10,,
,7.735001,1.65E-10,,
,7.737001,1.67E-10,,
,7.739001,1.69E-10,,
,7.741001,1.71E-10,,
,7.743001,1.71E-10,,
,7.745001,1.70E-10,,
,7.747001,1.68E-10,,
,7.749001,1.67E-10,,
,7.751001,1.66E-10,,
,7.753001,1.66E-10,,
,7.755001,1.67E-10,,
,7.757001,1.67E-10,,
,7.759001,1.67E-10,,
,7.761001,1.65E-10,,
,7.763001,1.63E-10,,
,7.765001,1.60E-10,,
,7.767001,1.58E-10,,
,7.769001,1.57E-10,,
,7.771001,1.56E-10,,
,7.773001,1.56E-10,,
,7.775001,1.55E-10,,
,7.777001,1.54E-10,,
,7.779001,1.51E-10,,
,7.781001,1.48E-10,,
,7.783001,1.46E-10,,
,7.785001,1.45E-10,,
,7.787001,1.45E-10,,
,7.789001,1.45E-10,,
,7.791001,1.45E-10,,
,7.793001,1.44E-10,,
,7.795001,1.41E-10,,
,7.797001,1.39E-10,,
,7.799001,1.37E-10,,
,7.801001,1.35E-10,,
,7.803001,1.34E-10,,
,7.805001,1.34E-10,,
,7.807001,1.34E-10,,
,7.809001,1.33E-10,,
,7.811001,1.31E-10,,
,7.813001,1.28E-10,,
,7.815001,1.25E-10,,
,7.817001,1.23E-10,,
,7.819001,1.23E-10,,
,7.821001,1.23E-10,,
,7.823001,1.23E-10,,
,7.825001,1.23E-10,,
,7.827001,1.22E-10,,
,7.829001,1.20E-10,,
,7.831001,1.18E-10,,
,7.833001,1.16E-10,,
,7.835001,1.15E-10,,
,7.837001,1.15E-10,,
,7.839001,1.16E-10,,
,7.841001,1.16E-10,,
,7.843001,1.16E-10,,
,7.845001,1.15E-10,,
,7.847001,1.13E-10,,
,7.849001,1.12E-10,,
,7.851001,1.12E-10,,
,7.853001,1.13E-10,,
,7.855001,1.14E-10,,
,7.857001,1.16E-10,,
,7.859001,1.17E-10,,
,7.861001,1.17E-10,,
,7.863001,1.16E-10,,
,7.865001,1.15E-10,,
,7.867001,1.15E-10,,
,7.869001,1.16E-10,,
,7.871001,1.18E-10,,
,7.873001,1.20E-10,,
,7.875001,1.22E-10,,
,7.877001,1.23E-10,,
,7.879001,1.23E-10,,
,7.881001,1.23E-10,,
,7.883001,1.23E-10,,
,7.885001,1.25E-10,,
,7.887001,1.27E-10,,
,7.889001,1.29E-10,,
,7.891001,1.31E-10,,
,7.893001,1.31E-10,,
,7.895001,1.31E-10,,
,7.897001,1.30E-10,,
,7.899001,1.29E-10,,
,7.901001,1.29E-10,,
,7.903001,1.29E-10,,
,7.905001,1.30E-10,,
,7.907001,1.31E-10,,
,7.909001,1.30E-10,,
,7.911001,1.29E-10,,
,7.913001,1.27E-10,,
,7.915001,1.24E-10,,
,7.917001,1.23E-10,,
,7.919001,1.22E-10,,
,7.921001,1.21E-10,,
,7.923001,1.21E-10,,
,7.925001,1.20E-10,,
,7.927001,1.18E-10,,
,7.929001,1.15E-10,,
,7.931001,1.12E-10,,
,7.933001,1.10E-10,,
,7.935001,1.08E-10,,
,7.937001,1.06E-10,,
,7.939001,1.05E-10,,
,7.941001,1.04E-10,,
,7.943001,1.03E-10,,
,7.945001,9.97E-11,,
,7.947001,9.62E-11,,
,7.949001,9.32E-11,,
,7.951001,9.09E-11,,
,7.953001,8.98E-11,,
,7.955001,8.90E-11,,
,7.957001,8.87E-11,,
,7.959001,8.77E-11,,
,7.961001,8.55E-11,,
,7.963001,8.23E-11,,
,7.965001,7.91E-11,,
,7.967001,7.71E-11,,
,7.969001,7.57E-11,,
,7.971001,7.50E-11,,
,7.973001,7.46E-11,,
,7.975001,7.43E-11,,
,7.977001,7.32E-11,,
,7.979001,7.08E-11,,
,7.981001,6.84E-11,,
,7.983001,6.64E-11,,
,7.985001,6.56E-11,,
,7.987001,6.54E-11,,
,7.989001,6.54E-11,,
,7.991001,6.52E-11,,
,7.993001,6.41E-11,,
,7.995001,6.21E-11,,
,7.997001,5.96E-11,,
,7.999001,5.75E-11,,
,8.001001,5.59E-11,,
,8.003001,5.55E-11,,
,8.005001,5.55E-11,,
,8.007001,5.57E-11,,
,8.009001,5.49E-11,,
,8.011001,5.34E-11,,
,8.013001,5.12E-11,,
,8.015001,4.94E-11,,
,8.017001,4.81E-11,,
,8.019001,4.77E-11,,
,8.021001,4.82E-11,,
,8.023001,4.90E-11,,
,8.025001,4.93E-11,,
,8.027001,4.79E-11,,
,8.029001,4.54E-11,,
,8.031001,4.26E-11,,
,8.033001,4.08E-11,,
,8.035001,3.95E-11,,
,8.037001,3.91E-11,,
,8.039001,3.89E-11,,
,8.041001,3.85E-11,,
,8.043001,3.73E-11,,
,8.045001,3.52E-11,,
,8.047001,3.29E-11,,
,8.049001,3.10E-11,,
,8.051001,2.99E-11,,
,8.053001,2.96E-11,,
,8.055001,2.99E-11,,
,8.057001,3.04E-11,,
,8.059001,3.00E-11,,
,8.061001,2.82E-11,,
,8.063001,2.55E-11,,
,8.065001,2.32E-11,,
,8.067001,2.17E-11,,
,8.069001,2.08E-11,,
,8.071001,2.03E-11,,
,8.073001,1.98E-11,,
,8.075001,1.92E-11,,
,8.077001,1.76E-11,,
,8.079001,1.53E-11,,
,8.081001,1.26E-11,,
,8.083001,1.05E-11,,
,8.085001,9.31E-12,,
,8.087001,9.10E-12,,
,8.089001,9.53E-12,,
,8.091001,9.53E-12,,
,8.093001,8.46E-12,,
,8.095001,6.20E-12,,
,8.097001,3.20E-12,,
,8.099001,4.04E-13,,
,8.101001,-1.53E-12,,
,8.103001,-2.28E-12,,
,8.105001,-2.60E-12,,
,8.107001,-3.03E-12,,
,8.109001,-4.21E-12,,
,8.111001,-6.36E-12,,
,8.113001,-9.15E-12,,
,8.115001,-1.19E-11,,
,8.117001,-1.39E-11,,
,8.119001,-1.52E-11,,
,8.121001,-1.57E-11,,
,8.123001,-1.59E-11,,
,8.125001,-1.68E-11,,
,8.127001,-1.88E-11,,
,8.129001,-2.22E-11,,
,8.131001,-2.59E-11,,
,8.133001,-2.89E-11,,
,8.135001,-3.09E-11,,
,8.137001,-3.19E-11,,
,8.139001,-3.28E-11,,
,8.141001,-3.39E-11,,
,8.143001,-3.64E-11,,
,8.145001,-4.00E-11,,
,8.147001,-4.43E-11,,
,8.149001,-4.79E-11,,
,8.151001,-5.10E-11,,
,8.153001,-5.30E-11,,
,8.155001,-5.48E-11,,
,8.157001,-5.65E-11,,
,8.159001,-5.93E-11,,
,8.161001,-6.33E-11,,
,8.163001,-6.82E-11,,
,8.165001,-7.30E-11,,
,8.167001,-7.76E-11,,
,8.169001,-8.14E-11,,
,8.171001,-8.45E-11,,
,8.173001,-8.73E-11,,
,8.175001,-9.06E-11,,
,8.177001,-9.54E-11,,
,8.179001,-1.01E-10,,
,8.181001,-1.07E-10,,
,8.183001,-1.12E-10,,
,8.185001,-1.17E-10,,
,8.187001,-1.20E-10,,
,8.189001,-1.23E-10,,
,8.191001,-1.27E-10,,
,8.193001,-1.32E-10,,
,8.195001,-1.37E-10,,
,8.197001,-1.43E-10,,
,8.199001,-1.49E-10,,
,8.201001,-1.54E-10,,
,8.203001,-1.58E-10,,
,8.205001,-1.61E-10,,
,8.207001,-1.64E-10,,
,8.209001,-1.67E-10,,
,8.211001,-1.71E-10,,
,8.213001,-1.76E-10,,
,8.215001,-1.81E-10,,
,8.217001,-1.85E-10,,
,8.219001,-1.87E-10,,
,8.221001,-1.89E-10,,
,8.223001,-1.90E-10,,
,8.225001,-1.91E-10,,
,8.227001,-1.94E-10,,
,8.229001,-1.96E-10,,
,8.231001,-1.99E-10,,
,8.233001,-2.01E-10,,
,8.235001,-2.03E-10,,
,8.237001,-2.03E-10,,
,8.239001,-2.02E-10,,
,8.241001,-2.02E-10,,
,8.243001,-2.02E-10,,
,8.245001,-2.03E-10,,
,8.247001,-2.04E-10,,
,8.249001,-2.05E-10,,
,8.251001,-2.04E-10,,
,8.253001,-2.03E-10,,
,8.255001,-2.02E-10,,
,8.257001,-2.00E-10,,
,8.259001,-1.99E-10,,
,8.261001,-1.99E-10,,
,8.263001,-1.99E-10,,
,8.265001,-2.00E-10,,
,8.267001,-2.00E-10,,
,8.269001,-1.99E-10,,
,8.271001,-1.97E-10,,
,8.273001,-1.94E-10,,
,8.275001,-1.93E-10,,
,8.277001,-1.92E-10,,
,8.279001,-1.92E-10,,
,8.281001,-1.93E-10,,
,8.283001,-1.93E-10,,
,8.285001,-1.92E-10,,
,8.287001,-1.90E-10,,
,8.289001,-1.87E-10,,
,8.291001,-1.86E-10,,
,8.293001,-1.85E-10,,
,8.295001,-1.85E-10,,
,8.297001,-1.86E-10,,
,8.299001,-1.87E-10,,
,8.301001,-1.87E-10,,
,8.303001,-1.86E-10,,
,8.305001,-1.84E-10,,
,8.307001,-1.82E-10,,
,8.309001,-1.82E-10,,
,8.311001,-1.82E-10,,
,8.313001,-1.83E-10,,
,8.315001,-1.84E-10,,
,8.317001,-1.84E-10,,
,8.319001,-1.84E-10,,
,8.321001,-1.83E-10,,
,8.323001,-1.82E-10,,
,8.325001,-1.81E-10,,
,8.327001,-1.82E-10,,
,8.329001,-1.84E-10,,
,8.331001,-1.86E-10,,
,8.333001,-1.88E-10,,
,8.335001,-1.90E-10,,
,8.337001,-1.90E-10,,
,8.339001,-1.91E-10,,
,8.341001,-1.92E-10,,
,8.343001,-1.95E-10,,
,8.345001,-1.98E-10,,
,8.347001,-2.03E-10,,
,8.349001,-2.07E-10,,
,8.351001,-2.10E-10,,
,8.353001,-2.13E-10,,
,8.355001,-2.15E-10,,
,8.357001,-2.18E-10,,
,8.359001,-2.21E-10,,
,8.361001,-2.25E-10,,
,8.363001,-2.30E-10,,
,8.365001,-2.35E-10,,
,8.367001,-2.40E-10,,
,8.369001,-2.44E-10,,
,8.371001,-2.47E-10,,
,8.373001,-2.50E-10,,
,8.375001,-2.54E-10,,
,8.377001,-2.58E-10,,
,8.379001,-2.64E-10,,
,8.381001,-2.70E-10,,
,8.383001,-2.76E-10,,
,8.385001,-2.81E-10,,
,8.387001,-2.85E-10,,
,8.389001,-2.90E-10,,
,8.391001,-2.96E-10,,
,8.393001,-3.03E-10,,
,8.395001,-3.12E-10,,
,8.397001,-3.22E-10,,
,8.399001,-3.32E-10,,
,8.401001,-3.42E-10,,
,8.403001,-3.52E-10,,
,8.405001,-3.61E-10,,
,8.407001,-3.72E-10,,
,8.409001,-3.84E-10,,
,8.411001,-3.98E-10,,
,8.413001,-4.13E-10,,
,8.415001,-4.29E-10,,
,8.417001,-4.45E-10,,
,8.419001,-4.61E-10,,
,8.421001,-4.77E-10,,
,8.423001,-4.93E-10,,
,8.425001,-5.10E-10,,
,8.427001,-5.28E-10,,
,8.429001,-5.48E-10,,
,8.431001,-5.68E-10,,
,8.433001,-5.87E-10,,
,8.435001,-6.06E-10,,
,8.437001,-6.24E-10,,
,8.439001,-6.42E-10,,
,8.441001,-6.60E-10,,
,8.443001,-6.77E-10,,
,8.445001,-6.96E-10,,
,8.447001,-7.15E-10,,
,8.449001,-7.33E-10,,
,8.451001,-7.49E-10,,
,8.453001,-7.64E-10,,
,8.455001,-7.78E-10,,
,8.457001,-7.92E-10,,
,8.459001,-8.06E-10,,
,8.461001,-8.21E-10,,
,8.463001,-8.36E-10,,
,8.465001,-8.50E-10,,
,8.467001,-8.63E-10,,
,8.469001,-8.75E-10,,
,8.471001,-8.85E-10,,
,8.473001,-8.95E-10,,
,8.475001,-9.04E-10,,
,8.477001,-9.14E-10,,
,8.479001,-9.25E-10,,
,8.481001,-9.36E-10,,
,8.483001,-9.45E-10,,
,8.485001,-9.53E-10,,
,8.487001,-9.60E-10,,
,8.489001,-9.66E-10,,
,8.491001,-9.72E-10,,
,8.493001,-9.78E-10,,
,8.495001,-9.85E-10,,
,8.497001,-9.92E-10,,
,8.499001,-9.99E-10,,
,8.501001,-1.00E-09,,
,8.503001,-1.01E-09,,
,8.505001,-1.01E-09,,
,8.507001,-1.01E-09,,
,8.509001,-1.01E-09,,
,8.511001,-1.02E-09,,
,8.513001,-1.02E-09,,
,8.515001,-1.02E-09,,
,8.517001,-1.02E-09,,
,8.519001,-1.02E-09,,
,8.521001,-1.02E-09,,
,8.523001,-1.01E-09,,
,8.525001,-1.01E-09,,
,8.527001,-1.01E-09,,
,8.529001,-1.00E-09,,
,8.531001,-1.00E-09,,
,8.533001,-9.96E-10,,
,8.535001,-9.89E-10,,
,8.537001,-9.80E-10,,
,8.539001,-9.70E-10,,
,8.541001,-9.60E-10,,
,8.543001,-9.50E-10,,
,8.545001,-9.40E-10,,
,8.547001,-9.30E-10,,
,8.549001,-9.18E-10,,
,8.551001,-9.05E-10,,
,8.553001,-8.90E-10,,
,8.555001,-8.74E-10,,
,8.557001,-8.57E-10,,
,8.559001,-8.40E-10,,
,8.561001,-8.25E-10,,
,8.563001,-8.10E-10,,
,8.565001,-7.95E-10,,
,8.567001,-7.79E-10,,
,8.569001,-7.62E-10,,
,8.571001,-7.45E-10,,
,8.573001,-7.27E-10,,
,8.575001,-7.11E-10,,
,8.577001,-6.95E-10,,
,8.579001,-6.81E-10,,
,8.581001,-6.68E-10,,
,8.583001,-6.54E-10,,
,8.585001,-6.40E-10,,
,8.587001,-6.25E-10,,
,8.589001,-6.10E-10,,
,8.591001,-5.95E-10,,
,8.593001,-5.82E-10,,
,8.595001,-5.71E-10,,
,8.597001,-5.61E-10,,
,8.599001,-5.51E-10,,
,8.601001,-5.40E-10,,
,8.603001,-5.29E-10,,
,8.605001,-5.16E-10,,
,8.607001,-5.04E-10,,
,8.609001,-4.93E-10,,
,8.611001,-4.83E-10,,
,8.613001,-4.74E-10,,
,8.615001,-4.65E-10,,
,8.617001,-4.54E-10,,
,8.619001,-4.42E-10,,
,8.621001,-4.28E-10,,
,8.623001,-4.12E-10,,
,8.625001,-3.97E-10,,
,8.627001,-3.83E-10,,
,8.629001,-3.70E-10,,
,8.631001,-3.58E-10,,
,8.633001,-3.45E-10,,
,8.635001,-3.32E-10,,
,8.637001,-3.17E-10,,
,8.639001,-3.01E-10,,
,8.641001,-2.87E-10,,
,8.643001,-2.73E-10,,
,8.645001,-2.61E-10,,
,8.647001,-2.49E-10,,
,8.649001,-2.37E-10,,
,8.651001,-2.24E-10,,
,8.653001,-2.10E-10,,
,8.655001,-1.95E-10,,
,8.657001,-1.80E-10,,
,8.659001,-1.66E-10,,
,8.661001,-1.54E-10,,
,8.663001,-1.44E-10,,
,8.665001,-1.34E-10,,
,8.667001,-1.24E-10,,
,8.669001,-1.12E-10,,
,8.671001,-1.00E-10,,
,8.673001,-8.83E-11,,
,8.675001,-7.70E-11,,
,8.677001,-6.78E-11,,
,8.679001,-6.00E-11,,
,8.681001,-5.31E-11,,
,8.683001,-4.54E-11,,
,8.685001,-3.68E-11,,
,8.687001,-2.74E-11,,
,8.689001,-1.78E-11,,
,8.691001,-8.83E-12,,
,8.693001,-1.64E-12,,
,8.695001,3.84E-12,,
,8.697001,8.03E-12,,
,8.699001,1.22E-11,,
,8.701001,1.73E-11,,
,8.703001,2.33E-11,,
,8.705001,2.99E-11,,
,8.707001,3.63E-11,,
,8.709001,4.14E-11,,
,8.711001,4.51E-11,,
,8.713001,4.75E-11,,
,8.715001,4.99E-11,,
,8.717001,5.30E-11,,
,8.719001,5.71E-11,,
,8.721001,6.20E-11,,
,8.723001,6.70E-11,,
,8.725001,7.13E-11,,
,8.727001,7.36E-11,,
,8.729001,7.45E-11,,
,8.731001,7.47E-11,,
,8.733001,7.57E-11,,
,8.735001,7.76E-11,,
,8.737001,8.07E-11,,
,8.739001,8.41E-11,,
,8.741001,8.73E-11,,
,8.743001,8.90E-11,,
,8.745001,8.91E-11,,
,8.747001,8.83E-11,,
,8.749001,8.78E-11,,
,8.751001,8.83E-11,,
,8.753001,9.03E-11,,
,8.755001,9.31E-11,,
,8.757001,9.60E-11,,
,8.759001,9.76E-11,,
,8.761001,9.70E-11,,
,8.763001,9.52E-11,,
,8.765001,9.34E-11,,
,8.767001,9.26E-11,,
,8.769001,9.32E-11,,
,8.771001,9.46E-11,,
,8.773001,9.64E-11,,
,8.775001,9.73E-11,,
,8.777001,9.69E-11,,
,8.779001,9.51E-11,,
,8.781001,9.29E-11,,
,8.783001,9.15E-11,,
,8.785001,9.13E-11,,
,8.787001,9.22E-11,,
,8.789001,9.38E-11,,
,8.791001,9.50E-11,,
,8.793001,9.49E-11,,
,8.795001,9.32E-11,,
,8.797001,9.07E-11,,
,8.799001,8.84E-11,,
,8.801001,8.74E-11,,
,8.803001,8.75E-11,,
,8.805001,8.87E-11,,
,8.807001,8.95E-11,,
,8.809001,8.96E-11,,
,8.811001,8.83E-11,,
,8.813001,8.62E-11,,
,8.815001,8.40E-11,,
,8.817001,8.27E-11,,
,8.819001,8.27E-11,,
,8.821001,8.39E-11,,
,8.823001,8.56E-11,,
,8.825001,8.68E-11,,
,8.827001,8.63E-11,,
,8.829001,8.42E-11,,
,8.831001,8.19E-11,,
,8.833001,8.01E-11,,
,8.835001,7.95E-11,,
,8.837001,7.98E-11,,
,8.839001,8.09E-11,,
,8.841001,8.18E-11,,
,8.843001,8.14E-11,,
,8.845001,7.95E-11,,
,8.847001,7.67E-11,,
,8.849001,7.45E-11,,
,8.851001,7.31E-11,,
,8.853001,7.29E-11,,
,8.855001,7.37E-11,,
,8.857001,7.48E-11,,
,8.859001,7.49E-11,,
,8.861001,7.32E-11,,
,8.863001,7.02E-11,,
,8.865001,6.74E-11,,
,8.867001,6.54E-11,,
,8.869001,6.48E-11,,
,8.871001,6.50E-11,,
,8.873001,6.58E-11,,
,8.875001,6.60E-11,,
,8.877001,6.47E-11,,
,8.879001,6.18E-11,,
,8.881001,5.87E-11,,
,8.883001,5.68E-11,,
,8.885001,5.62E-11,,
,8.887001,5.69E-11,,
,8.889001,5.82E-11,,
,8.891001,5.96E-11,,
,8.893001,5.96E-11,,
,8.895001,5.81E-11,,
,8.897001,5.56E-11,,
,8.899001,5.38E-11,,
,8.901001,5.29E-11,,
,8.903001,5.35E-11,,
,8.905001,5.49E-11,,
,8.907001,5.64E-11,,
,8.909001,5.71E-11,,
,8.911001,5.63E-11,,
,8.913001,5.46E-11,,
,8.915001,5.30E-11,,
,8.917001,5.23E-11,,
,8.919001,5.29E-11,,
,8.921001,5.47E-11,,
,8.923001,5.70E-11,,
,8.925001,5.86E-11,,
,8.927001,5.86E-11,,
,8.929001,5.72E-11,,
,8.931001,5.54E-11,,
,8.933001,5.41E-11,,
,8.935001,5.43E-11,,
,8.937001,5.57E-11,,
,8.939001,5.81E-11,,
,8.941001,6.00E-11,,
,8.943001,6.06E-11,,
,8.945001,5.96E-11,,
,8.947001,5.77E-11,,
,8.949001,5.63E-11,,
,8.951001,5.64E-11,,
,8.953001,5.77E-11,,
,8.955001,6.01E-11,,
,8.957001,6.20E-11,,
,8.959001,6.31E-11,,
,8.961001,6.26E-11,,
,8.963001,6.11E-11,,
,8.965001,5.96E-11,,
,8.967001,5.88E-11,,
,8.969001,5.94E-11,,
,8.971001,6.11E-11,,
,8.973001,6.32E-11,,
,8.975001,6.46E-11,,
,8.977001,6.46E-11,,
,8.979001,6.34E-11,,
,8.981001,6.18E-11,,
,8.983001,6.13E-11,,
,8.985001,6.18E-11,,
,8.987001,6.39E-11,,
,8.989001,6.64E-11,,
,8.991001,6.86E-11,,
,8.993001,6.94E-11,,
,8.995001,6.87E-11,,
,8.997001,6.72E-11,,
,8.999001,6.60E-11,,
,9.001001,6.61E-11,,
,9.003001,6.78E-11,,
,9.005001,7.05E-11,,
,9.007001,7.30E-11,,
,9.009001,7.45E-11,,
,9.011001,7.46E-11,,
,9.013001,7.39E-11,,
,9.015001,7.33E-11,,
,9.017001,7.36E-11,,
,9.019001,7.51E-11,,
,9.021001,7.79E-11,,
,9.023001,8.11E-11,,
,9.025001,8.40E-11,,
,9.027001,8.52E-11,,
,9.029001,8.49E-11,,
,9.031001,8.41E-11,,
,9.033001,8.41E-11,,
,9.035001,8.56E-11,,
,9.037001,8.82E-11,,
,9.039001,9.15E-11,,
,9.041001,9.44E-11,,
,9.043001,9.62E-11,,
,9.045001,9.65E-11,,
,9.047001,9.60E-11,,
,9.049001,9.58E-11,,
,9.051001,9.70E-11,,
,9.053001,9.96E-11,,
,9.055001,1.03E-10,,
,9.057001,1.06E-10,,
,9.059001,1.09E-10,,
,9.061001,1.09E-10,,
,9.063001,1.09E-10,,
,9.065001,1.09E-10,,
,9.067001,1.09E-10,,
,9.069001,1.11E-10,,
,9.071001,1.14E-10,,
,9.073001,1.17E-10,,
,9.075001,1.20E-10,,
,9.077001,1.21E-10,,
,9.079001,1.20E-10,,
,9.081001,1.19E-10,,
,9.083001,1.19E-10,,
,9.085001,1.21E-10,,
,9.087001,1.23E-10,,
,9.089001,1.26E-10,,
,9.091001,1.29E-10,,
,9.093001,1.31E-10,,
,9.095001,1.31E-10,,
,9.097001,1.30E-10,,
,9.099001,1.29E-10,,
,9.101001,1.30E-10,,
,9.103001,1.31E-10,,
,9.105001,1.34E-10,,
,9.107001,1.36E-10,,
,9.109001,1.38E-10,,
,9.111001,1.38E-10,,
,9.113001,1.37E-10,,
,9.115001,1.36E-10,,
,9.117001,1.36E-10,,
,9.119001,1.37E-10,,
,9.121001,1.39E-10,,
,9.123001,1.42E-10,,
,9.125001,1.43E-10,,
,9.127001,1.44E-10,,
,9.129001,1.42E-10,,
,9.131001,1.40E-10,,
,9.133001,1.39E-10,,
,9.135001,1.39E-10,,
,9.137001,1.41E-10,,
,9.139001,1.42E-10,,
,9.141001,1.43E-10,,
,9.143001,1.43E-10,,
,9.145001,1.42E-10,,
,9.147001,1.39E-10,,
,9.149001,1.38E-10,,
,9.151001,1.37E-10,,
,9.153001,1.38E-10,,
,9.155001,1.40E-10,,
,9.157001,1.41E-10,,
,9.159001,1.42E-10,,
,9.161001,1.41E-10,,
,9.163001,1.39E-10,,
,9.165001,1.37E-10,,
,9.167001,1.35E-10,,
,9.169001,1.35E-10,,
,9.171001,1.36E-10,,
,9.173001,1.37E-10,,
,9.175001,1.38E-10,,
,9.177001,1.37E-10,,
,9.179001,1.35E-10,,
,9.181001,1.32E-10,,
,9.183001,1.31E-10,,
,9.185001,1.30E-10,,
,9.187001,1.30E-10,,
,9.189001,1.31E-10,,
,9.191001,1.32E-10,,
,9.193001,1.32E-10,,
,9.195001,1.30E-10,,
,9.197001,1.27E-10,,
,9.199001,1.25E-10,,
,9.201001,1.23E-10,,
,9.203001,1.22E-10,,
,9.205001,1.23E-10,,
,9.207001,1.23E-10,,
,9.209001,1.22E-10,,
,9.211001,1.20E-10,,
,9.213001,1.17E-10,,
,9.215001,1.14E-10,,
,9.217001,1.12E-10,,
,9.219001,1.12E-10,,
,9.221001,1.12E-10,,
,9.223001,1.12E-10,,
,9.225001,1.13E-10,,
,9.227001,1.12E-10,,
,9.229001,1.09E-10,,
,9.231001,1.06E-10,,
,9.233001,1.03E-10,,
,9.235001,1.02E-10,,
,9.237001,1.02E-10,,
,9.239001,1.03E-10,,
,9.241001,1.03E-10,,
,9.243001,1.02E-10,,
,9.245001,9.93E-11,,
,9.247001,9.60E-11,,
,9.249001,9.33E-11,,
,9.251001,9.20E-11,,
,9.253001,9.19E-11,,
,9.255001,9.25E-11,,
,9.257001,9.32E-11,,
,9.259001,9.29E-11,,
,9.261001,9.11E-11,,
,9.263001,8.82E-11,,
,9.265001,8.51E-11,,
,9.267001,8.31E-11,,
,9.269001,8.23E-11,,
,9.271001,8.30E-11,,
,9.273001,8.38E-11,,
,9.275001,8.39E-11,,
,9.277001,8.25E-11,,
,9.279001,8.00E-11,,
,9.281001,7.72E-11,,
,9.283001,7.51E-11,,
,9.285001,7.42E-11,,
,9.287001,7.46E-11,,
,9.289001,7.57E-11,,
,9.291001,7.67E-11,,
,9.293001,7.61E-11,,
,9.295001,7.41E-11,,
,9.297001,7.12E-11,,
,9.299001,6.90E-11,,
,9.301001,6.77E-11,,
,9.303001,6.75E-11,,
,9.305001,6.83E-11,,
,9.307001,6.92E-11,,
,9.309001,6.95E-11,,
,9.311001,6.78E-11,,
,9.313001,6.52E-11,,
,9.315001,6.26E-11,,
,9.317001,6.12E-11,,
,9.319001,6.11E-11,,
,9.321001,6.20E-11,,
,9.323001,6.33E-11,,
,9.325001,6.37E-11,,
,9.327001,6.27E-11,,
,9.329001,6.04E-11,,
,9.331001,5.79E-11,,
,9.333001,5.62E-11,,
,9.335001,5.55E-11,,
,9.337001,5.59E-11,,
,9.339001,5.69E-11,,
,9.341001,5.77E-11,,
,9.343001,5.72E-11,,
,9.345001,5.52E-11,,
,9.347001,5.24E-11,,
,9.349001,5.00E-11,,
,9.351001,4.91E-11,,
,9.353001,4.98E-11,,
,9.355001,5.13E-11,,
,9.357001,5.27E-11,,
,9.359001,5.31E-11,,
,9.361001,5.19E-11,,
,9.363001,4.98E-11,,
,9.365001,4.74E-11,,
,9.367001,4.62E-11,,
,9.369001,4.62E-11,,
,9.371001,4.70E-11,,
,9.373001,4.84E-11,,
,9.375001,4.93E-11,,
,9.377001,4.88E-11,,
,9.379001,4.66E-11,,
,9.381001,4.39E-11,,
,9.383001,4.24E-11,,
,9.385001,4.26E-11,,
,9.387001,4.39E-11,,
,9.389001,4.57E-11,,
,9.391001,4.69E-11,,
,9.393001,4.71E-11,,
,9.395001,4.56E-11,,
,9.397001,4.35E-11,,
,9.399001,4.15E-11,,
,9.401001,4.10E-11,,
,9.403001,4.17E-11,,
,9.405001,4.36E-11,,
,9.407001,4.51E-11,,
,9.409001,4.56E-11,,
,9.411001,4.43E-11,,
,9.413001,4.25E-11,,
,9.415001,4.07E-11,,
,9.417001,4.00E-11,,
,9.419001,4.06E-11,,
,9.421001,4.22E-11,,
,9.423001,4.43E-11,,
,9.425001,4.57E-11,,
,9.427001,4.56E-11,,
,9.429001,4.38E-11,,
,9.431001,4.17E-11,,
,9.433001,4.06E-11,,
,9.435001,4.06E-11,,
,9.437001,4.15E-11,,
,9.439001,4.30E-11,,
,9.441001,4.43E-11,,
,9.443001,4.43E-11,,
,9.445001,4.27E-11,,
,9.447001,4.06E-11,,
,9.449001,3.91E-11,,
,9.451001,3.88E-11,,
,9.453001,3.99E-11,,
,9.455001,4.16E-11,,
,9.457001,4.35E-11,,
,9.459001,4.41E-11,,
,9.461001,4.31E-11,,
,9.463001,4.10E-11,,
,9.465001,3.87E-11,,
,9.467001,3.77E-11,,
,9.469001,3.77E-11,,
,9.471001,3.88E-11,,
,9.473001,4.02E-11,,
,9.475001,4.09E-11,,
,9.477001,4.01E-11,,
,9.479001,3.78E-11,,
,9.481001,3.52E-11,,
,9.483001,3.35E-11,,
,9.485001,3.31E-11,,
,9.487001,3.41E-11,,
,9.489001,3.56E-11,,
,9.491001,3.65E-11,,
,9.493001,3.59E-11,,
,9.495001,3.39E-11,,
,9.497001,3.14E-11,,
,9.499001,2.94E-11,,
,9.501001,2.83E-11,,
,9.503001,2.85E-11,,
,9.505001,2.94E-11,,
,9.507001,3.00E-11,,
,9.509001,2.97E-11,,
,9.511001,2.81E-11,,
,9.513001,2.56E-11,,
,9.515001,2.33E-11,,
,9.517001,2.19E-11,,
,9.519001,2.18E-11,,
,9.521001,2.27E-11,,
,9.523001,2.41E-11,,
,9.525001,2.48E-11,,
,9.527001,2.38E-11,,
,9.529001,2.11E-11,,
,9.531001,1.83E-11,,
,9.533001,1.63E-11,,
,9.535001,1.58E-11,,
,9.537001,1.63E-11,,
,9.539001,1.74E-11,,
,9.541001,1.80E-11,,
,9.543001,1.74E-11,,
,9.545001,1.51E-11,,
,9.547001,1.25E-11,,
,9.549001,1.03E-11,,
,9.551001,9.53E-12,,
,9.553001,9.85E-12,,
,9.555001,1.11E-11,,
,9.557001,1.23E-11,,
,9.559001,1.26E-11,,
,9.561001,1.12E-11,,
,9.563001,8.99E-12,,
,9.565001,6.42E-12,,
,9.567001,5.13E-12,,
,9.569001,4.70E-12,,
,9.571001,5.66E-12,,
,9.573001,7.06E-12,,
,9.575001,7.81E-12,,
,9.577001,7.06E-12,,
,9.579001,4.81E-12,,
,9.581001,2.44E-12,,
,9.583001,7.26E-13,,
,9.585001,2.97E-13,,
,9.587001,1.16E-12,,
,9.589001,2.55E-12,,
,9.591001,3.95E-12,,
,9.593001,4.05E-12,,
,9.595001,2.87E-12,,
,9.597001,4.04E-13,,
,9.599001,-1.64E-12,,
,9.601001,-2.71E-12,,
,9.603001,-2.17E-12,,
,9.605001,-5.62E-13,,
,9.607001,9.41E-13,,
,9.609001,1.37E-12,,
,9.611001,-2.53E-14,,
,9.613001,-2.28E-12,,
,9.615001,-4.64E-12,,
,9.617001,-5.61E-12,,
,9.619001,-5.07E-12,,
,9.621001,-3.25E-12,,
,9.623001,-1.21E-12,,
,9.625001,1.89E-13,,
,9.627001,1.89E-13,,
,9.629001,-1.42E-12,,
,9.631001,-3.57E-12,,
,9.633001,-5.07E-12,,
,9.635001,-4.96E-12,,
,9.637001,-3.78E-12,,
,9.639001,-1.96E-12,,
,9.641001,-4.55E-13,,
,9.643001,-2.40E-13,,
,9.645001,-1.21E-12,,
,9.647001,-3.25E-12,,
,9.649001,-4.32E-12,,
,9.651001,-4.32E-12,,
,9.653001,-2.92E-12,,
,9.655001,-6.69E-13,,
,9.657001,1.59E-12,,
,9.659001,2.98E-12,,
,9.661001,2.55E-12,,
,9.663001,1.05E-12,,
,9.665001,-2.40E-13,,
,9.667001,-5.62E-13,,
,9.669001,4.04E-13,,
,9.671001,2.34E-12,,
,9.673001,4.70E-12,,
,9.675001,6.42E-12,,
,9.677001,6.52E-12,,
,9.679001,5.34E-12,,
,9.681001,3.62E-12,,
,9.683001,2.98E-12,,
,9.685001,3.52E-12,,
,9.687001,5.45E-12,,
,9.689001,8.03E-12,,
,9.691001,1.03E-11,,
,9.693001,1.12E-11,,
,9.695001,1.04E-11,,
,9.697001,8.89E-12,,
,9.699001,7.81E-12,,
,9.701001,8.13E-12,,
,9.703001,9.64E-12,,
,9.705001,1.19E-11,,
,9.707001,1.43E-11,,
,9.709001,1.56E-11,,
,9.711001,1.54E-11,,
,9.713001,1.40E-11,,
,9.715001,1.28E-11,,
,9.717001,1.28E-11,,
,9.719001,1.37E-11,,
,9.721001,1.60E-11,,
,9.723001,1.85E-11,,
,9.725001,2.08E-11,,
,9.727001,2.13E-11,,
,9.729001,2.04E-11,,
,9.731001,1.90E-11,,
,9.733001,1.85E-11,,
,9.735001,1.93E-11,,
,9.737001,2.12E-11,,
,9.739001,2.37E-11,,
,9.741001,2.56E-11,,
,9.743001,2.61E-11,,
,9.745001,2.50E-11,,
,9.747001,2.35E-11,,
,9.749001,2.25E-11,,
,9.751001,2.25E-11,,
,9.753001,2.42E-11,,
,9.755001,2.68E-11,,
,9.757001,2.96E-11,,
,9.759001,3.11E-11,,
,9.761001,3.09E-11,,
,9.763001,2.94E-11,,
,9.765001,2.78E-11,,
,9.767001,2.74E-11,,
,9.769001,2.82E-11,,
,9.771001,3.00E-11,,
,9.773001,3.22E-11,,
,9.775001,3.37E-11,,
,9.777001,3.37E-11,,
,9.779001,3.25E-11,,
,9.781001,3.10E-11,,
,9.783001,3.00E-11,,
,9.785001,3.01E-11,,
,9.787001,3.15E-11,,
,9.789001,3.38E-11,,
,9.791001,3.57E-11,,
,9.793001,3.65E-11,,
,9.795001,3.58E-11,,
,9.797001,3.45E-11,,
,9.799001,3.33E-11,,
,9.801001,3.31E-11,,
,9.803001,3.42E-11,,
,9.805001,3.65E-11,,
,9.807001,3.85E-11,,
,9.809001,3.95E-11,,
,9.811001,3.86E-11,,
,9.813001,3.68E-11,,
,9.815001,3.53E-11,,
,9.817001,3.48E-11,,
,9.819001,3.56E-11,,
,9.821001,3.77E-11,,
,9.823001,4.02E-11,,
,9.825001,4.21E-11,,
,9.827001,4.18E-11,,
,9.829001,4.04E-11,,
,9.831001,3.86E-11,,
,9.833001,3.77E-11,,
,9.835001,3.80E-11,,
,9.837001,3.93E-11,,
,9.839001,4.12E-11,,
,9.841001,4.26E-11,,
,9.843001,4.31E-11,,
,9.845001,4.21E-11,,
,9.847001,4.02E-11,,
,9.849001,3.87E-11,,
,9.851001,3.87E-11,,
,9.853001,3.99E-11,,
,9.855001,4.21E-11,,
,9.857001,4.39E-11,,
,9.859001,4.48E-11,,
,9.861001,4.41E-11,,
,9.863001,4.24E-11,,
,9.865001,4.06E-11,,
,9.867001,3.96E-11,,
,9.869001,4.00E-11,,
,9.871001,4.18E-11,,
,9.873001,4.40E-11,,
,9.875001,4.55E-11,,
,9.877001,4.51E-11,,
,9.879001,4.32E-11,,
,9.881001,4.12E-11,,
,9.883001,4.00E-11,,
,9.885001,4.01E-11,,
,9.887001,4.13E-11,,
,9.889001,4.33E-11,,
,9.891001,4.52E-11,,
,9.893001,4.55E-11,,
,9.895001,4.41E-11,,
,9.897001,4.18E-11,,
,9.899001,4.01E-11,,
,9.901001,3.95E-11,,
,9.903001,4.02E-11,,
,9.905001,4.17E-11,,
,9.907001,4.35E-11,,
,9.909001,4.40E-11,,
,9.911001,4.32E-11,,
,9.913001,4.11E-11,,
,9.915001,3.91E-11,,
,9.917001,3.82E-11,,
,9.919001,3.87E-11,,
,9.921001,4.02E-11,,
,9.923001,4.17E-11,,
,9.925001,4.27E-11,,
,9.927001,4.25E-11,,
,9.929001,4.09E-11,,
,9.931001,3.91E-11,,
,9.933001,3.75E-11,,
,9.935001,3.73E-11,,
,9.937001,3.82E-11,,
,9.939001,3.99E-11,,
,9.941001,4.16E-11,,
,9.943001,4.20E-11,,
,9.945001,4.08E-11,,
,9.947001,3.83E-11,,
,9.949001,3.65E-11,,
,9.951001,3.59E-11,,
,9.953001,3.70E-11,,
,9.955001,3.89E-11,,
,9.957001,4.09E-11,,
,9.959001,4.15E-11,,
,9.961001,4.06E-11,,
,9.963001,3.85E-11,,
,9.965001,3.67E-11,,
,9.967001,3.60E-11,,
,9.969001,3.65E-11,,
,9.971001,3.79E-11,,
,9.973001,3.95E-11,,
,9.975001,4.08E-11,,
,9.977001,4.03E-11,,
,9.979001,3.85E-11,,
,9.981001,3.64E-11,,
,9.983001,3.53E-11,,
,9.985001,3.53E-11,,
,9.987001,3.65E-11,,
,9.989001,3.82E-11,,
,9.991001,3.99E-11,,
,9.993001,4.00E-11,,
,9.995001,3.89E-11,,
,9.997001,3.70E-11,,
,9.999001,3.54E-11,,
,10.001001,3.48E-11,,
,10.003001,3.53E-11,,
,10.005001,3.72E-11,,
,10.007001,3.91E-11,,
,10.009001,3.98E-11,,
,10.011001,3.86E-11,,
,10.013001,3.66E-11,,
,10.015001,3.47E-11,,
,10.017001,3.38E-11,,
,10.019001,3.40E-11,,
,10.021001,3.55E-11,,
,10.023001,3.75E-11,,
,10.025001,3.91E-11,,
,10.027001,3.89E-11,,
,10.029001,3.73E-11,,
,10.031001,3.53E-11,,
,10.033001,3.40E-11,,
,10.035001,3.40E-11,,
,10.037001,3.52E-11,,
,10.039001,3.71E-11,,
,10.041001,3.85E-11,,
,10.043001,3.87E-11,,
,10.045001,3.71E-11,,
,10.047001,3.47E-11,,
,10.049001,3.29E-11,,
,10.051001,3.27E-11,,
,10.053001,3.40E-11,,
,10.055001,3.59E-11,,
,10.057001,3.78E-11,,
,10.059001,3.88E-11,,
,10.061001,3.83E-11,,
,10.063001,3.65E-11,,
,10.065001,3.47E-11,,
,10.067001,3.38E-11,,
,10.069001,3.47E-11,,
,10.071001,3.66E-11,,
,10.073001,3.88E-11,,
,10.075001,4.00E-11,,
,10.077001,3.96E-11,,
,10.079001,3.79E-11,,
,10.081001,3.63E-11,,
,10.083001,3.55E-11,,
,10.085001,3.59E-11,,
,10.087001,3.73E-11,,
,10.089001,3.94E-11,,
,10.091001,4.13E-11,,
,10.093001,4.21E-11,,
,10.095001,4.10E-11,,
,10.097001,3.91E-11,,
,10.099001,3.75E-11,,
,10.101001,3.75E-11,,
,10.103001,3.89E-11,,
,10.105001,4.10E-11,,
,10.107001,4.29E-11,,
,10.109001,4.38E-11,,
,10.111001,4.31E-11,,
,10.113001,4.17E-11,,
,10.115001,4.01E-11,,
,10.117001,3.96E-11,,
,10.119001,4.02E-11,,
,10.121001,4.25E-11,,
,10.123001,4.48E-11,,
,10.125001,4.64E-11,,
,10.127001,4.62E-11,,
,10.129001,4.46E-11,,
,10.131001,4.28E-11,,
,10.133001,4.14E-11,,
,10.135001,4.15E-11,,
,10.137001,4.26E-11,,
,10.139001,4.45E-11,,
,10.141001,4.61E-11,,
,10.143001,4.65E-11,,
,10.145001,4.53E-11,,
,10.147001,4.32E-11,,
,10.149001,4.17E-11,,
,10.151001,4.12E-11,,
,10.153001,4.21E-11,,
,10.155001,4.38E-11,,
,10.157001,4.55E-11,,
,10.159001,4.61E-11,,
,10.161001,4.51E-11,,
,10.163001,4.30E-11,,
,10.165001,4.10E-11,,
,10.167001,4.03E-11,,
,10.169001,4.08E-11,,
,10.171001,4.22E-11,,
,10.173001,4.37E-11,,
,10.175001,4.47E-11,,
,10.177001,4.46E-11,,
,10.179001,4.29E-11,,
,10.181001,4.09E-11,,
,10.183001,3.93E-11,,
,10.185001,3.94E-11,,
,10.187001,4.06E-11,,
,10.189001,4.25E-11,,
,10.191001,4.38E-11,,
,10.193001,4.38E-11,,
,10.195001,4.21E-11,,
,10.197001,3.98E-11,,
,10.199001,3.79E-11,,
,10.201001,3.73E-11,,
,10.203001,3.81E-11,,
,10.205001,3.97E-11,,
,10.207001,4.14E-11,,
,10.209001,4.21E-11,,
,10.211001,4.10E-11,,
,10.213001,3.87E-11,,
,10.215001,3.66E-11,,
,10.217001,3.54E-11,,
,10.219001,3.57E-11,,
,10.221001,3.71E-11,,
,10.223001,3.91E-11,,
,10.225001,4.01E-11,,
,10.227001,3.98E-11,,
,10.229001,3.79E-11,,
,10.231001,3.56E-11,,
,10.233001,3.38E-11,,
,10.235001,3.34E-11,,
,10.237001,3.42E-11,,
,10.239001,3.57E-11,,
,10.241001,3.71E-11,,
,10.243001,3.70E-11,,
,10.245001,3.54E-11,,
,10.247001,3.30E-11,,
,10.249001,3.10E-11,,
,10.251001,3.00E-11,,
,10.253001,3.04E-11,,
,10.255001,3.16E-11,,
,10.257001,3.35E-11,,
,10.259001,3.38E-11,,
,10.261001,3.27E-11,,
,10.263001,3.02E-11,,
,10.265001,2.84E-11,,
,10.267001,2.76E-11,,
,10.269001,2.78E-11,,
,10.271001,2.89E-11,,
,10.273001,3.01E-11,,
,10.275001,3.08E-11,,
,10.277001,2.98E-11,,
,10.279001,2.76E-11,,
,10.281001,2.49E-11,,
,10.283001,2.31E-11,,
,10.285001,2.24E-11,,
,10.287001,2.32E-11,,
,10.289001,2.46E-11,,
,10.291001,2.60E-11,,
,10.293001,2.58E-11,,
,10.295001,2.43E-11,,
,10.297001,2.17E-11,,
,10.299001,1.97E-11,,
,10.301001,1.90E-11,,
,10.303001,1.96E-11,,
,10.305001,2.11E-11,,
,10.307001,2.24E-11,,
,10.309001,2.29E-11,,
,10.311001,2.17E-11,,
,10.313001,1.95E-11,,
,10.315001,1.70E-11,,
,10.317001,1.59E-11,,
,10.319001,1.62E-11,,
,10.321001,1.78E-11,,
,10.323001,1.97E-11,,
,10.325001,2.07E-11,,
,10.327001,2.03E-11,,
,10.329001,1.84E-11,,
,10.331001,1.63E-11,,
,10.333001,1.48E-11,,
,10.335001,1.49E-11,,
,10.337001,1.60E-11,,
,10.339001,1.79E-11,,
,10.341001,1.90E-11,,
,10.343001,1.92E-11,,
,10.345001,1.75E-11,,
,10.347001,1.50E-11,,
,10.349001,1.29E-11,,
,10.351001,1.22E-11,,
,10.353001,1.30E-11,,
,10.355001,1.45E-11,,
,10.357001,1.60E-11,,
,10.359001,1.65E-11,,
,10.361001,1.55E-11,,
,10.363001,1.35E-11,,
,10.365001,1.18E-11,,
,10.367001,1.09E-11,,
,10.369001,1.15E-11,,
,10.371001,1.28E-11,,
,10.373001,1.45E-11,,
,10.375001,1.54E-11,,
,10.377001,1.51E-11,,
,10.379001,1.33E-11,,
,10.381001,1.12E-11,,
,10.383001,9.85E-12,,
,10.385001,1.01E-11,,
,10.387001,1.12E-11,,
,10.389001,1.31E-11,,
,10.391001,1.48E-11,,
,10.393001,1.52E-11,,
,10.395001,1.41E-11,,
,10.397001,1.20E-11,,
,10.399001,1.04E-11,,
,10.401001,9.96E-12,,
,10.403001,1.10E-11,,
,10.405001,1.30E-11,,
,10.407001,1.49E-11,,
,10.409001,1.58E-11,,
,10.411001,1.50E-11,,
,10.413001,1.31E-11,,
,10.415001,1.12E-11,,
,10.417001,1.06E-11,,
,10.419001,1.15E-11,,
,10.421001,1.30E-11,,
,10.423001,1.50E-11,,
,10.425001,1.62E-11,,
,10.427001,1.62E-11,,
,10.429001,1.47E-11,,
,10.431001,1.30E-11,,
,10.433001,1.17E-11,,
,10.435001,1.16E-11,,
,10.437001,1.30E-11,,
,10.439001,1.52E-11,,
,10.441001,1.68E-11,,
,10.443001,1.69E-11,,
,10.445001,1.54E-11,,
,10.447001,1.35E-11,,
,10.449001,1.20E-11,,
,10.451001,1.19E-11,,
,10.453001,1.30E-11,,
,10.455001,1.51E-11,,
,10.457001,1.70E-11,,
,10.459001,1.80E-11,,
,10.461001,1.69E-11,,
,10.463001,1.50E-11,,
,10.465001,1.33E-11,,
,10.467001,1.29E-11,,
,10.469001,1.36E-11,,
,10.471001,1.52E-11,,
,10.473001,1.69E-11,,
,10.475001,1.81E-11,,
,10.477001,1.78E-11,,
,10.479001,1.62E-11,,
,10.481001,1.41E-11,,
,10.483001,1.30E-11,,
,10.485001,1.31E-11,,
,10.487001,1.45E-11,,
,10.489001,1.63E-11,,
,10.491001,1.80E-11,,
,10.493001,1.80E-11,,
,10.495001,1.69E-11,,
,10.497001,1.50E-11,,
,10.499001,1.38E-11,,
,10.501001,1.35E-11,,
,10.503001,1.45E-11,,
,10.505001,1.62E-11,,
,10.507001,1.79E-11,,
,10.509001,1.87E-11,,
,10.511001,1.77E-11,,
,10.513001,1.58E-11,,
,10.515001,1.37E-11,,
,10.517001,1.30E-11,,
,10.519001,1.34E-11,,
,10.521001,1.50E-11,,
,10.523001,1.68E-11,,
,10.525001,1.82E-11,,
,10.527001,1.79E-11,,
,10.529001,1.63E-11,,
,10.531001,1.43E-11,,
,10.533001,1.33E-11,,
,10.535001,1.36E-11,,
,10.537001,1.51E-11,,
,10.539001,1.70E-11,,
,10.541001,1.85E-11,,
,10.543001,1.88E-11,,
,10.545001,1.74E-11,,
,10.547001,1.55E-11,,
,10.549001,1.40E-11,,
,10.551001,1.39E-11,,
,10.553001,1.50E-11,,
,10.555001,1.70E-11,,
,10.557001,1.90E-11,,
,10.559001,1.98E-11,,
,10.561001,1.92E-11,,
,10.563001,1.76E-11,,
,10.565001,1.62E-11,,
,10.567001,1.58E-11,,
,10.569001,1.67E-11,,
,10.571001,1.84E-11,,
,10.573001,2.06E-11,,
,10.575001,2.19E-11,,
,10.577001,2.18E-11,,
,10.579001,2.03E-11,,
,10.581001,1.84E-11,,
,10.583001,1.75E-11,,
,10.585001,1.76E-11,,
,10.587001,1.91E-11,,
,10.589001,2.13E-11,,
,10.591001,2.35E-11,,
,10.593001,2.40E-11,,
,10.595001,2.29E-11,,
,10.597001,2.12E-11,,
,10.599001,2.03E-11,,
,10.601001,2.05E-11,,
,10.603001,2.18E-11,,
,10.605001,2.37E-11,,
,10.607001,2.55E-11,,
,10.609001,2.65E-11,,
,10.611001,2.58E-11,,
,10.613001,2.42E-11,,
,10.615001,2.25E-11,,
,10.617001,2.19E-11,,
,10.619001,2.27E-11,,
,10.621001,2.47E-11,,
,10.623001,2.70E-11,,
,10.625001,2.84E-11,,
,10.627001,2.83E-11,,
,10.629001,2.69E-11,,
,10.631001,2.51E-11,,
,10.633001,2.43E-11,,
,10.635001,2.50E-11,,
,10.637001,2.69E-11,,
,10.639001,2.92E-11,,
,10.641001,3.08E-11,,
,10.643001,3.11E-11,,
,10.645001,2.98E-11,,
,10.647001,2.79E-11,,
,10.649001,2.65E-11,,
,10.651001,2.65E-11,,
,10.653001,2.78E-11,,
,10.655001,3.00E-11,,
,10.657001,3.23E-11,,
,10.659001,3.35E-11,,
,10.661001,3.31E-11,,
,10.663001,3.16E-11,,
,10.665001,3.05E-11,,
,10.667001,2.99E-11,,
,10.669001,3.10E-11,,
,10.671001,3.28E-11,,
,10.673001,3.53E-11,,
,10.675001,3.69E-11,,
,10.677001,3.68E-11,,
,10.679001,3.54E-11,,
,10.681001,3.34E-11,,
,10.683001,3.24E-11,,
,10.685001,3.24E-11,,
,10.687001,3.39E-11,,
,10.689001,3.60E-11,,
,10.691001,3.81E-11,,
,10.693001,3.86E-11,,
,10.695001,3.74E-11,,
,10.697001,3.56E-11,,
,10.699001,3.44E-11,,
,10.701001,3.45E-11,,
,10.703001,3.55E-11,,
,10.705001,3.71E-11,,
,10.707001,3.88E-11,,
,10.709001,3.95E-11,,
,10.711001,3.85E-11,,
,10.713001,3.64E-11,,
,10.715001,3.47E-11,,
,10.717001,3.39E-11,,
,10.719001,3.43E-11,,
,10.721001,3.57E-11,,
,10.723001,3.80E-11,,
,10.725001,3.96E-11,,
,10.727001,3.97E-11,,
,10.729001,3.81E-11,,
,10.731001,3.64E-11,,
,10.733001,3.55E-11,,
,10.735001,3.58E-11,,
,10.737001,3.72E-11,,
,10.739001,3.91E-11,,
,10.741001,4.06E-11,,
,10.743001,4.06E-11,,
,10.745001,3.91E-11,,
,10.747001,3.70E-11,,
,10.749001,3.55E-11,,
,10.751001,3.52E-11,,
,10.753001,3.60E-11,,
,10.755001,3.81E-11,,
,10.757001,4.00E-11,,
,10.759001,4.08E-11,,
,10.761001,3.97E-11,,
,10.763001,3.80E-11,,
,10.765001,3.64E-11,,
,10.767001,3.57E-11,,
,10.769001,3.59E-11,,
,10.771001,3.72E-11,,
,10.773001,3.87E-11,,
,10.775001,3.97E-11,,
,10.777001,3.92E-11,,
,10.779001,3.75E-11,,
,10.781001,3.54E-11,,
,10.783001,3.42E-11,,
,10.785001,3.42E-11,,
,10.787001,3.56E-11,,
,10.789001,3.75E-11,,
,10.791001,3.93E-11,,
,10.793001,3.95E-11,,
,10.795001,3.83E-11,,
,10.797001,3.63E-11,,
,10.799001,3.50E-11,,
,10.801001,3.45E-11,,
,10.803001,3.55E-11,,
,10.805001,3.72E-11,,
,10.807001,3.91E-11,,
,10.809001,3.96E-11,,
,10.811001,3.86E-11,,
,10.813001,3.64E-11,,
,10.815001,3.44E-11,,
,10.817001,3.34E-11,,
,10.819001,3.38E-11,,
,10.821001,3.53E-11,,
,10.823001,3.70E-11,,
,10.825001,3.80E-11,,
,10.827001,3.73E-11,,
,10.829001,3.55E-11,,
,10.831001,3.36E-11,,
,10.833001,3.25E-11,,
,10.835001,3.25E-11,,
,10.837001,3.36E-11,,
,10.839001,3.53E-11,,
,10.841001,3.67E-11,,
,10.843001,3.67E-11,,
,10.845001,3.51E-11,,
,10.847001,3.28E-11,,
,10.849001,3.13E-11,,
,10.851001,3.10E-11,,
,10.853001,3.20E-11,,
,10.855001,3.37E-11,,
,10.857001,3.53E-11,,
,10.859001,3.58E-11,,
,10.861001,3.47E-11,,
,10.863001,3.26E-11,,
,10.865001,3.07E-11,,
,10.867001,2.97E-11,,
,10.869001,3.01E-11,,
,10.871001,3.18E-11,,
,10.873001,3.39E-11,,
,10.875001,3.49E-11,,
,10.877001,3.45E-11,,
,10.879001,3.27E-11,,
,10.881001,3.08E-11,,
,10.883001,2.96E-11,,
,10.885001,2.98E-11,,
,10.887001,3.12E-11,,
,10.889001,3.31E-11,,
,10.891001,3.48E-11,,
,10.893001,3.51E-11,,
,10.895001,3.39E-11,,
,10.897001,3.19E-11,,
,10.899001,3.07E-11,,
,10.901001,3.06E-11,,
,10.903001,3.19E-11,,
,10.905001,3.36E-11,,
,10.907001,3.53E-11,,
,10.909001,3.57E-11,,
,10.911001,3.45E-11,,
,10.913001,3.23E-11,,
,10.915001,3.05E-11,,
,10.917001,2.97E-11,,
,10.919001,3.01E-11,,
,10.921001,3.15E-11,,
,10.923001,3.35E-11,,
,10.925001,3.49E-11,,
,10.927001,3.44E-11,,
,10.929001,3.28E-11,,
,10.931001,3.08E-11,,
,10.933001,3.00E-11,,
,10.935001,3.02E-11,,
,10.937001,3.16E-11,,
,10.939001,3.34E-11,,
,10.941001,3.49E-11,,
,10.943001,3.51E-11,,
,10.945001,3.39E-11,,
,10.947001,3.15E-11,,
,10.949001,3.00E-11,,
,10.951001,2.95E-11,,
,10.953001,3.05E-11,,
,10.955001,3.20E-11,,
,10.957001,3.36E-11,,
,10.959001,3.44E-11,,
,10.961001,3.36E-11,,
,10.963001,3.16E-11,,
,10.965001,2.97E-11,,
,10.967001,2.90E-11,,
,10.969001,2.96E-11,,
,10.971001,3.11E-11,,
,10.973001,3.28E-11,,
,10.975001,3.37E-11,,
,10.977001,3.31E-11,,
,10.979001,3.13E-11,,
,10.981001,2.91E-11,,
,10.983001,2.77E-11,,
,10.985001,2.76E-11,,
,10.987001,2.90E-11,,
,10.989001,3.09E-11,,
,10.991001,3.25E-11,,
,10.993001,3.27E-11,,
,10.995001,3.13E-11,,
,10.997001,2.92E-11,,
,10.999001,2.76E-11,,
,11.001001,2.72E-11,,
,11.003001,2.80E-11,,
,11.005001,2.94E-11,,
,11.007001,3.08E-11,,
,11.009001,3.11E-11,,
,11.011001,2.98E-11,,
,11.013001,2.75E-11,,
,11.015001,2.55E-11,,
,11.017001,2.48E-11,,
,11.019001,2.52E-11,,
,11.021001,2.67E-11,,
,11.023001,2.85E-11,,
,11.025001,3.00E-11,,
,11.027001,2.97E-11,,
,11.029001,2.81E-11,,
,11.031001,2.58E-11,,
,11.033001,2.48E-11,,
,11.035001,2.48E-11,,
,11.037001,2.62E-11,,
,11.039001,2.79E-11,,
,11.041001,2.93E-11,,
,11.043001,2.92E-11,,
,11.045001,2.77E-11,,
,11.047001,2.53E-11,,
,11.049001,2.37E-11,,
,11.051001,2.33E-11,,
,11.053001,2.45E-11,,
,11.055001,2.62E-11,,
,11.057001,2.80E-11,,
,11.059001,2.89E-11,,
,11.061001,2.82E-11,,
,11.063001,2.66E-11,,
,11.065001,2.49E-11,,
,11.067001,2.43E-11,,
,11.069001,2.48E-11,,
,11.071001,2.64E-11,,
,11.073001,2.83E-11,,
,11.075001,2.96E-11,,
,11.077001,2.93E-11,,
,11.079001,2.76E-11,,
,11.081001,2.54E-11,,
,11.083001,2.40E-11,,
,11.085001,2.40E-11,,
,11.087001,2.55E-11,,
,11.089001,2.77E-11,,
,11.091001,2.93E-11,,
,11.093001,2.95E-11,,
,11.095001,2.83E-11,,
,11.097001,2.64E-11,,
,11.099001,2.50E-11,,
,11.101001,2.47E-11,,
,11.103001,2.56E-11,,
,11.105001,2.74E-11,,
,11.107001,2.94E-11,,
,11.109001,3.01E-11,,
,11.111001,2.92E-11,,
,11.113001,2.68E-11,,
,11.115001,2.47E-11,,
,11.117001,2.39E-11,,
,11.119001,2.45E-11,,
,11.121001,2.63E-11,,
,11.123001,2.84E-11,,
,11.125001,2.98E-11,,
,11.127001,2.95E-11,,
,11.129001,2.80E-11,,
,11.131001,2.63E-11,,
,11.133001,2.54E-11,,
,11.135001,2.57E-11,,
,11.137001,2.71E-11,,
,11.139001,2.92E-11,,
,11.141001,3.06E-11,,
,11.143001,3.07E-11,,
,11.145001,2.93E-11,,
,11.147001,2.71E-11,,
,11.149001,2.55E-11,,
,11.151001,2.53E-11,,
,11.153001,2.63E-11,,
,11.155001,2.82E-11,,
,11.157001,2.99E-11,,
,11.159001,3.07E-11,,
,11.161001,2.96E-11,,
,11.163001,2.77E-11,,
,11.165001,2.58E-11,,
,11.167001,2.53E-11,,
,11.169001,2.60E-11,,
,11.171001,2.77E-11,,
,11.173001,2.94E-11,,
,11.175001,3.05E-11,,
,11.177001,2.98E-11,,
,11.179001,2.82E-11,,
,11.181001,2.58E-11,,
,11.183001,2.49E-11,,
,11.185001,2.48E-11,,
,11.187001,2.62E-11,,
,11.189001,2.77E-11,,
,11.191001,2.91E-11,,
,11.193001,2.91E-11,,
,11.195001,2.78E-11,,
,11.197001,2.58E-11,,
,11.199001,2.45E-11,,
,11.201001,2.42E-11,,
,11.203001,2.52E-11,,
,11.205001,2.71E-11,,
,11.207001,2.89E-11,,
,11.209001,2.94E-11,,
,11.211001,2.81E-11,,
,11.213001,2.57E-11,,
,11.215001,2.36E-11,,
,11.217001,2.26E-11,,
,11.219001,2.31E-11,,
