5/16/2019, 6:30:01 PM ,,,
 Current Sensitivity ,1.00E-09,,,
 This file comes from It only measurement ,0.00E+00,,,
 Sampling rate ,500,,,
 Number of samples per channel ,-1,,,
 No filter from Labview , , , ,
 , ,,,
 ***End_of_Header*** ,,,,
 , Time , Current , Filtered Current , 
,0.001,7.07E-13,,
,0.003,1.74E-12,,
,0.005,3.41E-12,,
,0.007,4.81E-12,,
,0.009,6.20E-12,,
,0.011,6.74E-12,,
,0.013,6.20E-12,,
,0.015,4.81E-12,,
,0.017,3.52E-12,,
,0.019,3.09E-12,,
,0.021,3.73E-12,,
,0.023,5.02E-12,,
,0.025,6.74E-12,,
,0.027,7.81E-12,,
,0.029,7.60E-12,,
,0.031,6.20E-12,,
,0.033,4.59E-12,,
,0.035,3.62E-12,,
,0.037,3.73E-12,,
,0.039,4.70E-12,,
,0.041,6.52E-12,,
,0.043,7.81E-12,,
,0.045,7.92E-12,,
,0.047,6.74E-12,,
,0.049,5.13E-12,,
,0.051,4.27E-12,,
,0.053,4.27E-12,,
,0.055,5.24E-12,,
,0.057,6.74E-12,,
,0.059,8.24E-12,,
,0.061,8.99E-12,,
,0.063,8.56E-12,,
,0.065,7.27E-12,,
,0.067,5.99E-12,,
,0.069,5.24E-12,,
,0.071,5.56E-12,,
,0.073,7.06E-12,,
,0.075,8.89E-12,,
,0.077,1.01E-11,,
,0.079,9.85E-12,,
,0.081,8.67E-12,,
,0.083,7.27E-12,,
,0.085,6.31E-12,,
,0.087,6.20E-12,,
,0.089,7.17E-12,,
,0.091,8.89E-12,,
,0.093,1.04E-11,,
,0.095,1.07E-11,,
,0.097,9.53E-12,,
,0.099,8.13E-12,,
,0.101,7.06E-12,,
,0.103,6.95E-12,,
,0.105,7.49E-12,,
,0.107,8.67E-12,,
,0.109,1.02E-11,,
,0.111,1.08E-11,,
,0.113,1.02E-11,,
,0.115,8.35E-12,,
,0.117,6.85E-12,,
,0.119,6.31E-12,,
,0.121,6.95E-12,,
,0.123,8.24E-12,,
,0.125,9.96E-12,,
,0.127,1.09E-11,,
,0.129,1.10E-11,,
,0.131,9.74E-12,,
,0.133,8.35E-12,,
,0.135,7.38E-12,,
,0.137,7.70E-12,,
,0.139,8.78E-12,,
,0.141,1.01E-11,,
,0.143,1.12E-11,,
,0.145,1.15E-11,,
,0.147,1.05E-11,,
,0.149,8.67E-12,,
,0.151,7.17E-12,,
,0.153,6.74E-12,,
,0.155,7.38E-12,,
,0.157,9.10E-12,,
,0.159,1.07E-11,,
,0.161,1.17E-11,,
,0.163,1.11E-11,,
,0.165,1.01E-11,,
,0.167,8.56E-12,,
,0.169,8.24E-12,,
,0.171,8.78E-12,,
,0.173,1.02E-11,,
,0.175,1.15E-11,,
,0.177,1.22E-11,,
,0.179,1.19E-11,,
,0.181,1.06E-11,,
,0.183,8.99E-12,,
,0.185,8.24E-12,,
,0.187,8.56E-12,,
,0.189,9.96E-12,,
,0.191,1.16E-11,,
,0.193,1.31E-11,,
,0.195,1.36E-11,,
,0.197,1.29E-11,,
,0.199,1.10E-11,,
,0.201,9.74E-12,,
,0.203,9.64E-12,,
,0.205,1.05E-11,,
,0.207,1.18E-11,,
,0.209,1.30E-11,,
,0.211,1.33E-11,,
,0.213,1.22E-11,,
,0.215,1.06E-11,,
,0.217,9.10E-12,,
,0.219,8.56E-12,,
,0.221,8.78E-12,,
,0.223,9.96E-12,,
,0.225,1.17E-11,,
,0.227,1.28E-11,,
,0.229,1.28E-11,,
,0.231,1.14E-11,,
,0.233,9.85E-12,,
,0.235,8.89E-12,,
,0.237,9.10E-12,,
,0.239,1.01E-11,,
,0.241,1.14E-11,,
,0.243,1.22E-11,,
,0.245,1.23E-11,,
,0.247,1.11E-11,,
,0.249,9.42E-12,,
,0.251,7.92E-12,,
,0.253,7.81E-12,,
,0.255,8.67E-12,,
,0.257,1.03E-11,,
,0.259,1.19E-11,,
,0.261,1.25E-11,,
,0.263,1.22E-11,,
,0.265,1.07E-11,,
,0.267,9.42E-12,,
,0.269,8.46E-12,,
,0.271,8.67E-12,,
,0.273,9.42E-12,,
,0.275,1.07E-11,,
,0.277,1.14E-11,,
,0.279,1.10E-11,,
,0.281,9.53E-12,,
,0.283,8.03E-12,,
,0.285,7.06E-12,,
,0.287,7.27E-12,,
,0.289,8.56E-12,,
,0.291,1.03E-11,,
,0.293,1.18E-11,,
,0.295,1.19E-11,,
,0.297,1.12E-11,,
,0.299,9.85E-12,,
,0.301,8.99E-12,,
,0.303,8.78E-12,,
,0.305,9.64E-12,,
,0.307,1.10E-11,,
,0.309,1.23E-11,,
,0.311,1.26E-11,,
,0.313,1.20E-11,,
,0.315,1.05E-11,,
,0.317,9.10E-12,,
,0.319,8.24E-12,,
,0.321,8.78E-12,,
,0.323,9.96E-12,,
,0.325,1.18E-11,,
,0.327,1.29E-11,,
,0.329,1.28E-11,,
,0.331,1.12E-11,,
,0.333,9.53E-12,,
,0.335,8.56E-12,,
,0.337,8.56E-12,,
,0.339,9.53E-12,,
,0.341,1.10E-11,,
,0.343,1.24E-11,,
,0.345,1.25E-11,,
,0.347,1.14E-11,,
,0.349,9.53E-12,,
,0.351,8.35E-12,,
,0.353,8.03E-12,,
,0.355,8.78E-12,,
,0.357,1.01E-11,,
,0.359,1.16E-11,,
,0.361,1.23E-11,,
,0.363,1.20E-11,,
,0.365,1.05E-11,,
,0.367,8.99E-12,,
,0.369,8.13E-12,,
,0.371,8.67E-12,,
,0.373,9.85E-12,,
,0.375,1.14E-11,,
,0.377,1.22E-11,,
,0.379,1.19E-11,,
,0.381,1.05E-11,,
,0.383,8.89E-12,,
,0.385,8.03E-12,,
,0.387,8.35E-12,,
,0.389,9.42E-12,,
,0.391,1.10E-11,,
,0.393,1.21E-11,,
,0.395,1.24E-11,,
,0.397,1.15E-11,,
,0.399,9.96E-12,,
,0.401,8.67E-12,,
,0.403,8.13E-12,,
,0.405,8.78E-12,,
,0.407,1.02E-11,,
,0.409,1.16E-11,,
,0.411,1.22E-11,,
,0.413,1.12E-11,,
,0.415,9.74E-12,,
,0.417,7.92E-12,,
,0.419,7.27E-12,,
,0.421,7.49E-12,,
,0.423,8.56E-12,,
,0.425,1.03E-11,,
,0.427,1.12E-11,,
,0.429,1.11E-11,,
,0.431,9.53E-12,,
,0.433,8.13E-12,,
,0.435,7.06E-12,,
,0.437,7.06E-12,,
,0.439,7.70E-12,,
,0.441,9.21E-12,,
,0.443,1.02E-11,,
,0.445,1.02E-11,,
,0.447,9.21E-12,,
,0.449,7.49E-12,,
,0.451,6.20E-12,,
,0.453,5.66E-12,,
,0.455,6.63E-12,,
,0.457,8.13E-12,,
,0.459,9.74E-12,,
,0.461,1.04E-11,,
,0.463,9.85E-12,,
,0.465,8.13E-12,,
,0.467,6.42E-12,,
,0.469,5.56E-12,,
,0.471,5.88E-12,,
,0.473,7.17E-12,,
,0.475,8.67E-12,,
,0.477,9.74E-12,,
,0.479,9.42E-12,,
,0.481,8.03E-12,,
,0.483,6.52E-12,,
,0.485,5.66E-12,,
,0.487,5.99E-12,,
,0.489,6.95E-12,,
,0.491,8.78E-12,,
,0.493,1.03E-11,,
,0.495,1.08E-11,,
,0.497,9.74E-12,,
,0.499,7.70E-12,,
,0.501,6.09E-12,,
,0.503,5.77E-12,,
,0.505,6.52E-12,,
,0.507,8.03E-12,,
,0.509,9.42E-12,,
,0.511,1.02E-11,,
,0.513,9.21E-12,,
,0.515,7.49E-12,,
,0.517,5.88E-12,,
,0.519,5.66E-12,,
,0.521,6.20E-12,,
,0.523,7.60E-12,,
,0.525,9.10E-12,,
,0.527,1.01E-11,,
,0.529,9.96E-12,,
,0.531,8.35E-12,,
,0.533,6.42E-12,,
,0.535,5.13E-12,,
,0.537,5.13E-12,,
,0.539,6.42E-12,,
,0.541,7.81E-12,,
,0.543,9.21E-12,,
,0.545,9.31E-12,,
,0.547,8.35E-12,,
,0.549,6.74E-12,,
,0.551,5.77E-12,,
,0.553,5.66E-12,,
,0.555,6.74E-12,,
,0.557,8.13E-12,,
,0.559,9.74E-12,,
,0.561,1.04E-11,,
,0.563,9.74E-12,,
,0.565,8.24E-12,,
,0.567,6.74E-12,,
,0.569,6.52E-12,,
,0.571,7.27E-12,,
,0.573,8.67E-12,,
,0.575,1.04E-11,,
,0.577,1.12E-11,,
,0.579,1.11E-11,,
,0.581,9.42E-12,,
,0.583,8.13E-12,,
,0.585,7.27E-12,,
,0.587,7.60E-12,,
,0.589,8.24E-12,,
,0.591,9.64E-12,,
,0.593,1.07E-11,,
,0.595,1.11E-11,,
,0.597,1.01E-11,,
,0.599,8.56E-12,,
,0.601,7.06E-12,,
,0.603,6.95E-12,,
,0.605,7.70E-12,,
,0.607,9.42E-12,,
,0.609,1.07E-11,,
,0.611,1.11E-11,,
,0.613,1.03E-11,,
,0.615,8.46E-12,,
,0.617,6.85E-12,,
,0.619,5.99E-12,,
,0.621,6.09E-12,,
,0.623,7.38E-12,,
,0.625,8.89E-12,,
,0.627,1.02E-11,,
,0.629,9.96E-12,,
,0.631,8.78E-12,,
,0.633,7.17E-12,,
,0.635,6.20E-12,,
,0.637,6.20E-12,,
,0.639,7.17E-12,,
,0.641,8.56E-12,,
,0.643,9.85E-12,,
,0.645,9.96E-12,,
,0.647,8.78E-12,,
,0.649,6.85E-12,,
,0.651,5.56E-12,,
,0.653,5.02E-12,,
,0.655,5.77E-12,,
,0.657,7.17E-12,,
,0.659,8.99E-12,,
,0.661,9.74E-12,,
,0.663,9.42E-12,,
,0.665,7.81E-12,,
,0.667,6.42E-12,,
,0.669,5.45E-12,,
,0.671,5.88E-12,,
,0.673,6.85E-12,,
,0.675,8.13E-12,,
,0.677,8.78E-12,,
,0.679,8.56E-12,,
,0.681,7.06E-12,,
,0.683,5.24E-12,,
,0.685,3.95E-12,,
,0.687,3.95E-12,,
,0.689,5.13E-12,,
,0.691,6.85E-12,,
,0.693,8.46E-12,,
,0.695,8.89E-12,,
,0.697,8.24E-12,,
,0.699,7.06E-12,,
,0.701,5.77E-12,,
,0.703,5.24E-12,,
,0.705,5.66E-12,,
,0.707,7.17E-12,,
,0.709,8.78E-12,,
,0.711,9.21E-12,,
,0.713,8.46E-12,,
,0.715,6.85E-12,,
,0.717,5.56E-12,,
,0.719,5.02E-12,,
,0.721,5.34E-12,,
,0.723,6.63E-12,,
,0.725,8.35E-12,,
,0.727,9.64E-12,,
,0.729,9.42E-12,,
,0.731,8.13E-12,,
,0.733,6.52E-12,,
,0.735,5.56E-12,,
,0.737,5.56E-12,,
,0.739,6.52E-12,,
,0.741,7.92E-12,,
,0.743,9.10E-12,,
,0.745,8.99E-12,,
,0.747,7.81E-12,,
,0.749,5.88E-12,,
,0.751,4.59E-12,,
,0.753,4.05E-12,,
,0.755,4.91E-12,,
,0.757,6.20E-12,,
,0.759,8.03E-12,,
,0.761,8.56E-12,,
,0.763,8.03E-12,,
,0.765,6.52E-12,,
,0.767,5.02E-12,,
,0.769,4.05E-12,,
,0.771,3.84E-12,,
,0.773,4.81E-12,,
,0.775,6.09E-12,,
,0.777,7.06E-12,,
,0.779,6.63E-12,,
,0.781,5.34E-12,,
,0.783,3.73E-12,,
,0.785,2.77E-12,,
,0.787,2.77E-12,,
,0.789,3.62E-12,,
,0.791,5.13E-12,,
,0.793,6.31E-12,,
,0.795,6.63E-12,,
,0.797,5.66E-12,,
,0.799,4.16E-12,,
,0.801,2.66E-12,,
,0.803,2.12E-12,,
,0.805,2.23E-12,,
,0.807,3.52E-12,,
,0.809,4.70E-12,,
,0.811,5.45E-12,,
,0.813,4.70E-12,,
,0.815,3.09E-12,,
,0.817,1.69E-12,,
,0.819,1.26E-12,,
,0.821,2.01E-12,,
,0.823,3.41E-12,,
,0.825,5.24E-12,,
,0.827,6.42E-12,,
,0.829,6.52E-12,,
,0.831,4.91E-12,,
,0.833,3.30E-12,,
,0.835,2.01E-12,,
,0.837,1.80E-12,,
,0.839,2.34E-12,,
,0.841,3.52E-12,,
,0.843,4.70E-12,,
,0.845,5.02E-12,,
,0.847,4.16E-12,,
,0.849,2.55E-12,,
,0.851,1.05E-12,,
,0.853,4.04E-13,,
,0.855,9.41E-13,,
,0.857,2.01E-12,,
,0.859,3.41E-12,,
,0.861,3.95E-12,,
,0.863,3.41E-12,,
,0.865,2.12E-12,,
,0.867,8.34E-13,,
,0.869,1.89E-13,,
,0.871,4.04E-13,,
,0.873,1.59E-12,,
,0.875,3.09E-12,,
,0.877,4.05E-12,,
,0.879,3.84E-12,,
,0.881,2.55E-12,,
,0.883,9.41E-13,,
,0.885,-2.53E-14,,
,0.887,8.20E-14,,
,0.889,1.16E-12,,
,0.891,2.77E-12,,
,0.893,4.27E-12,,
,0.895,4.81E-12,,
,0.897,3.95E-12,,
,0.899,2.55E-12,,
,0.901,1.26E-12,,
,0.903,1.16E-12,,
,0.905,1.69E-12,,
,0.907,3.09E-12,,
,0.909,4.70E-12,,
,0.911,5.45E-12,,
,0.913,4.91E-12,,
,0.915,3.09E-12,,
,0.917,1.69E-12,,
,0.919,8.34E-13,,
,0.921,1.37E-12,,
,0.923,2.55E-12,,
,0.925,4.48E-12,,
,0.927,5.56E-12,,
,0.929,5.56E-12,,
,0.931,4.16E-12,,
,0.933,2.66E-12,,
,0.935,1.80E-12,,
,0.937,2.01E-12,,
,0.939,2.98E-12,,
,0.941,4.59E-12,,
,0.943,6.09E-12,,
,0.945,6.63E-12,,
,0.947,5.66E-12,,
,0.949,3.95E-12,,
,0.951,2.55E-12,,
,0.953,2.23E-12,,
,0.955,2.87E-12,,
,0.957,4.48E-12,,
,0.959,6.20E-12,,
,0.961,7.27E-12,,
,0.963,7.06E-12,,
,0.965,5.77E-12,,
,0.967,4.38E-12,,
,0.969,3.73E-12,,
,0.971,3.95E-12,,
,0.973,5.24E-12,,
,0.975,6.74E-12,,
,0.977,7.92E-12,,
,0.979,7.70E-12,,
,0.981,6.09E-12,,
,0.983,4.59E-12,,
,0.985,3.73E-12,,
,0.987,3.84E-12,,
,0.989,4.70E-12,,
,0.991,6.42E-12,,
,0.993,8.13E-12,,
,0.995,8.78E-12,,
,0.997,7.81E-12,,
,0.999,6.42E-12,,
,1.001,4.91E-12,,
,1.003,4.59E-12,,
,1.005,5.13E-12,,
,1.007,6.74E-12,,
,1.009,8.24E-12,,
,1.011,8.78E-12,,
,1.013,8.03E-12,,
,1.015,6.52E-12,,
,1.017,5.02E-12,,
,1.019,4.48E-12,,
,1.021,4.70E-12,,
,1.023,6.20E-12,,
,1.025,7.81E-12,,
,1.027,9.42E-12,,
,1.029,9.64E-12,,
,1.031,8.67E-12,,
,1.033,6.95E-12,,
,1.035,5.88E-12,,
,1.037,5.99E-12,,
,1.039,6.85E-12,,
,1.041,8.46E-12,,
,1.043,9.64E-12,,
,1.045,1.01E-11,,
,1.047,8.99E-12,,
,1.049,7.49E-12,,
,1.051,6.09E-12,,
,1.053,5.77E-12,,
,1.055,6.20E-12,,
,1.057,7.60E-12,,
,1.059,8.89E-12,,
,1.061,9.64E-12,,
,1.063,8.99E-12,,
,1.065,7.38E-12,,
,1.067,5.77E-12,,
,1.069,5.13E-12,,
,1.071,5.66E-12,,
,1.073,6.95E-12,,
,1.075,8.24E-12,,
,1.077,8.89E-12,,
,1.079,8.67E-12,,
,1.081,7.49E-12,,
,1.083,5.99E-12,,
,1.085,5.02E-12,,
,1.087,5.13E-12,,
,1.089,6.20E-12,,
,1.091,7.92E-12,,
,1.093,9.31E-12,,
,1.095,9.74E-12,,
,1.097,8.46E-12,,
,1.099,6.74E-12,,
,1.101,5.24E-12,,
,1.103,4.70E-12,,
,1.105,5.02E-12,,
,1.107,6.42E-12,,
,1.109,7.60E-12,,
,1.111,8.24E-12,,
,1.113,7.38E-12,,
,1.115,5.99E-12,,
,1.117,4.38E-12,,
,1.119,3.52E-12,,
,1.121,3.84E-12,,
,1.123,5.13E-12,,
,1.125,6.74E-12,,
,1.127,7.81E-12,,
,1.129,7.60E-12,,
,1.131,6.20E-12,,
,1.133,4.48E-12,,
,1.135,3.20E-12,,
,1.137,3.20E-12,,
,1.139,4.27E-12,,
,1.141,5.99E-12,,
,1.143,7.06E-12,,
,1.145,7.17E-12,,
,1.147,6.20E-12,,
,1.149,4.70E-12,,
,1.151,3.30E-12,,
,1.153,2.98E-12,,
,1.155,3.95E-12,,
,1.157,5.66E-12,,
,1.159,7.49E-12,,
,1.161,8.35E-12,,
,1.163,7.81E-12,,
,1.165,6.31E-12,,
,1.167,4.81E-12,,
,1.169,4.05E-12,,
,1.171,4.27E-12,,
,1.173,5.66E-12,,
,1.175,7.49E-12,,
,1.177,8.67E-12,,
,1.179,8.56E-12,,
,1.181,7.38E-12,,
,1.183,6.09E-12,,
,1.185,5.34E-12,,
,1.187,5.56E-12,,
,1.189,6.52E-12,,
,1.191,7.92E-12,,
,1.193,9.21E-12,,
,1.195,9.74E-12,,
,1.197,8.99E-12,,
,1.199,7.38E-12,,
,1.201,5.99E-12,,
,1.203,5.56E-12,,
,1.205,6.09E-12,,
,1.207,7.27E-12,,
,1.209,8.89E-12,,
,1.211,9.85E-12,,
,1.213,9.64E-12,,
,1.215,8.03E-12,,
,1.217,6.42E-12,,
,1.219,5.56E-12,,
,1.221,5.88E-12,,
,1.223,7.17E-12,,
,1.225,8.56E-12,,
,1.227,9.64E-12,,
,1.229,9.53E-12,,
,1.231,8.35E-12,,
,1.233,6.74E-12,,
,1.235,5.56E-12,,
,1.237,5.56E-12,,
,1.239,6.42E-12,,
,1.241,8.13E-12,,
,1.243,9.74E-12,,
,1.245,1.05E-11,,
,1.247,9.64E-12,,
,1.249,8.03E-12,,
,1.251,6.63E-12,,
,1.253,6.74E-12,,
,1.255,7.38E-12,,
,1.257,9.10E-12,,
,1.259,1.03E-11,,
,1.261,1.12E-11,,
,1.263,1.05E-11,,
,1.265,8.89E-12,,
,1.267,7.17E-12,,
,1.269,6.20E-12,,
,1.271,6.85E-12,,
,1.273,8.13E-12,,
,1.275,9.85E-12,,
,1.277,1.08E-11,,
,1.279,1.10E-11,,
,1.281,1.01E-11,,
,1.283,8.56E-12,,
,1.285,7.49E-12,,
,1.287,7.49E-12,,
,1.289,8.46E-12,,
,1.291,9.96E-12,,
,1.293,1.12E-11,,
,1.295,1.18E-11,,
,1.297,1.10E-11,,
,1.299,9.64E-12,,
,1.301,8.46E-12,,
,1.303,8.13E-12,,
,1.305,8.89E-12,,
,1.307,1.02E-11,,
,1.309,1.16E-11,,
,1.311,1.22E-11,,
,1.313,1.18E-11,,
,1.315,1.03E-11,,
,1.317,8.78E-12,,
,1.319,7.70E-12,,
,1.321,7.81E-12,,
,1.323,8.78E-12,,
,1.325,1.04E-11,,
,1.327,1.16E-11,,
,1.329,1.16E-11,,
,1.331,1.04E-11,,
,1.333,8.99E-12,,
,1.335,8.35E-12,,
,1.337,8.56E-12,,
,1.339,9.53E-12,,
,1.341,1.09E-11,,
,1.343,1.24E-11,,
,1.345,1.26E-11,,
,1.347,1.16E-11,,
,1.349,9.64E-12,,
,1.351,8.24E-12,,
,1.353,7.49E-12,,
,1.355,7.70E-12,,
,1.357,8.67E-12,,
,1.359,9.96E-12,,
,1.361,1.06E-11,,
,1.363,1.02E-11,,
,1.365,8.67E-12,,
,1.367,7.17E-12,,
,1.369,6.31E-12,,
,1.371,6.74E-12,,
,1.373,8.03E-12,,
,1.375,9.53E-12,,
,1.377,1.05E-11,,
,1.379,1.01E-11,,
,1.381,8.78E-12,,
,1.383,7.06E-12,,
,1.385,6.09E-12,,
,1.387,5.99E-12,,
,1.389,6.85E-12,,
,1.391,8.35E-12,,
,1.393,9.85E-12,,
,1.395,1.05E-11,,
,1.397,9.64E-12,,
,1.399,8.13E-12,,
,1.401,6.95E-12,,
,1.403,7.06E-12,,
,1.405,7.70E-12,,
,1.407,8.67E-12,,
,1.409,9.74E-12,,
,1.411,1.06E-11,,
,1.413,1.04E-11,,
,1.415,8.99E-12,,
,1.417,7.38E-12,,
,1.419,6.63E-12,,
,1.421,6.95E-12,,
,1.423,7.70E-12,,
,1.425,9.21E-12,,
,1.427,1.02E-11,,
,1.429,1.03E-11,,
,1.431,8.78E-12,,
,1.433,6.95E-12,,
,1.435,5.88E-12,,
,1.437,5.77E-12,,
,1.439,6.52E-12,,
,1.441,7.70E-12,,
,1.443,8.67E-12,,
,1.445,8.89E-12,,
,1.447,7.81E-12,,
,1.449,6.20E-12,,
,1.451,4.91E-12,,
,1.453,4.48E-12,,
,1.455,4.91E-12,,
,1.457,6.09E-12,,
,1.459,7.49E-12,,
,1.461,8.46E-12,,
,1.463,8.13E-12,,
,1.465,6.74E-12,,
,1.467,5.13E-12,,
,1.469,4.27E-12,,
,1.471,4.70E-12,,
,1.473,5.99E-12,,
,1.475,7.38E-12,,
,1.477,8.35E-12,,
,1.479,8.24E-12,,
,1.481,7.27E-12,,
,1.483,5.66E-12,,
,1.485,4.48E-12,,
,1.487,4.27E-12,,
,1.489,5.13E-12,,
,1.491,6.63E-12,,
,1.493,7.92E-12,,
,1.495,8.24E-12,,
,1.497,7.49E-12,,
,1.499,5.88E-12,,
,1.501,4.59E-12,,
,1.503,3.95E-12,,
,1.505,4.59E-12,,
,1.507,5.77E-12,,
,1.509,7.38E-12,,
,1.511,8.13E-12,,
,1.513,7.70E-12,,
,1.515,5.66E-12,,
,1.517,3.73E-12,,
,1.519,2.98E-12,,
,1.521,3.41E-12,,
,1.523,4.70E-12,,
,1.525,5.99E-12,,
,1.527,7.38E-12,,
,1.529,7.38E-12,,
,1.531,6.31E-12,,
,1.533,4.59E-12,,
,1.535,3.52E-12,,
,1.537,3.52E-12,,
,1.539,4.38E-12,,
,1.541,5.99E-12,,
,1.543,7.38E-12,,
,1.545,7.81E-12,,
,1.547,6.95E-12,,
,1.549,5.13E-12,,
,1.551,3.73E-12,,
,1.553,3.20E-12,,
,1.555,3.73E-12,,
,1.557,5.24E-12,,
,1.559,6.63E-12,,
,1.561,7.60E-12,,
,1.563,7.27E-12,,
,1.565,5.99E-12,,
,1.567,4.48E-12,,
,1.569,3.52E-12,,
,1.571,3.62E-12,,
,1.573,4.70E-12,,
,1.575,5.99E-12,,
,1.577,7.06E-12,,
,1.579,6.85E-12,,
,1.581,5.34E-12,,
,1.583,3.62E-12,,
,1.585,2.55E-12,,
,1.587,2.87E-12,,
,1.589,3.62E-12,,
,1.591,5.02E-12,,
,1.593,6.20E-12,,
,1.595,6.74E-12,,
,1.597,6.09E-12,,
,1.599,4.70E-12,,
,1.601,3.41E-12,,
,1.603,2.87E-12,,
,1.605,3.52E-12,,
,1.607,5.02E-12,,
,1.609,6.74E-12,,
,1.611,7.70E-12,,
,1.613,7.27E-12,,
,1.615,5.77E-12,,
,1.617,4.05E-12,,
,1.619,3.30E-12,,
,1.621,3.41E-12,,
,1.623,4.81E-12,,
,1.625,6.31E-12,,
,1.627,7.92E-12,,
,1.629,8.03E-12,,
,1.631,7.06E-12,,
,1.633,5.45E-12,,
,1.635,4.38E-12,,
,1.637,4.38E-12,,
,1.639,5.24E-12,,
,1.641,6.63E-12,,
,1.643,8.03E-12,,
,1.645,8.46E-12,,
,1.647,7.70E-12,,
,1.649,5.99E-12,,
,1.651,4.70E-12,,
,1.653,4.16E-12,,
,1.655,4.81E-12,,
,1.657,6.20E-12,,
,1.659,7.92E-12,,
,1.661,9.10E-12,,
,1.663,8.78E-12,,
,1.665,7.60E-12,,
,1.667,6.20E-12,,
,1.669,5.77E-12,,
,1.671,6.09E-12,,
,1.673,7.38E-12,,
,1.675,8.78E-12,,
,1.677,9.96E-12,,
,1.679,9.74E-12,,
,1.681,8.35E-12,,
,1.683,6.42E-12,,
,1.685,5.02E-12,,
,1.687,4.81E-12,,
,1.689,5.66E-12,,
,1.691,7.17E-12,,
,1.693,8.78E-12,,
,1.695,9.10E-12,,
,1.697,8.24E-12,,
,1.699,6.42E-12,,
,1.701,5.02E-12,,
,1.703,4.38E-12,,
,1.705,4.81E-12,,
,1.707,5.88E-12,,
,1.709,7.06E-12,,
,1.711,7.17E-12,,
,1.713,6.20E-12,,
,1.715,4.27E-12,,
,1.717,2.66E-12,,
,1.719,1.69E-12,,
,1.721,1.91E-12,,
,1.723,3.09E-12,,
,1.725,4.91E-12,,
,1.727,6.31E-12,,
,1.729,6.31E-12,,
,1.731,5.24E-12,,
,1.733,3.62E-12,,
,1.735,2.55E-12,,
,1.737,2.23E-12,,
,1.739,2.66E-12,,
,1.741,3.73E-12,,
,1.743,4.70E-12,,
,1.745,5.02E-12,,
,1.747,4.05E-12,,
,1.749,2.23E-12,,
,1.751,6.19E-13,,
,1.753,-1.33E-13,,
,1.755,1.89E-13,,
,1.757,1.16E-12,,
,1.759,2.44E-12,,
,1.761,3.20E-12,,
,1.763,2.87E-12,,
,1.765,1.26E-12,,
,1.767,-3.47E-13,,
,1.769,-1.31E-12,,
,1.771,-1.42E-12,,
,1.773,-7.77E-13,,
,1.775,4.04E-13,,
,1.777,1.37E-12,,
,1.779,8.34E-13,,
,1.781,-8.84E-13,,
,1.783,-2.92E-12,,
,1.785,-4.21E-12,,
,1.787,-4.64E-12,,
,1.789,-4.00E-12,,
,1.791,-2.60E-12,,
,1.793,-1.21E-12,,
,1.795,-6.69E-13,,
,1.797,-1.53E-12,,
,1.799,-2.92E-12,,
,1.801,-4.10E-12,,
,1.803,-4.64E-12,,
,1.805,-3.89E-12,,
,1.807,-2.60E-12,,
,1.809,-9.92E-13,,
,1.811,-5.62E-13,,
,1.813,-1.31E-12,,
,1.815,-2.92E-12,,
,1.817,-4.64E-12,,
,1.819,-5.39E-12,,
,1.821,-5.18E-12,,
,1.823,-4.10E-12,,
,1.825,-2.71E-12,,
,1.827,-1.53E-12,,
,1.829,-1.42E-12,,
,1.831,-2.82E-12,,
,1.833,-4.21E-12,,
,1.835,-5.39E-12,,
,1.837,-5.18E-12,,
,1.839,-4.43E-12,,
,1.841,-2.82E-12,,
,1.843,-1.42E-12,,
,1.845,-9.92E-13,,
,1.847,-1.74E-12,,
,1.849,-3.35E-12,,
,1.851,-4.64E-12,,
,1.853,-5.18E-12,,
,1.855,-4.43E-12,,
,1.857,-3.35E-12,,
,1.859,-1.53E-12,,
,1.861,-7.77E-13,,
,1.863,-9.92E-13,,
,1.865,-2.49E-12,,
,1.867,-3.57E-12,,
,1.869,-3.89E-12,,
,1.871,-3.35E-12,,
,1.873,-2.07E-12,,
,1.875,-3.47E-13,,
,1.877,1.05E-12,,
,1.879,1.16E-12,,
,1.881,8.20E-14,,
,1.883,-1.42E-12,,
,1.885,-2.49E-12,,
,1.887,-2.60E-12,,
,1.889,-1.64E-12,,
,1.891,8.20E-14,,
,1.893,1.69E-12,,
,1.895,2.01E-12,,
,1.897,1.05E-12,,
,1.899,-6.69E-13,,
,1.901,-1.85E-12,,
,1.903,-2.17E-12,,
,1.905,-1.53E-12,,
,1.907,-2.40E-13,,
,1.909,1.26E-12,,
,1.911,2.23E-12,,
,1.913,1.80E-12,,
,1.915,8.20E-14,,
,1.917,-1.53E-12,,
,1.919,-2.39E-12,,
,1.921,-1.85E-12,,
,1.923,-1.10E-12,,
,1.925,2.97E-13,,
,1.927,1.37E-12,,
,1.929,1.69E-12,,
,1.931,5.11E-13,,
,1.933,-1.42E-12,,
,1.935,-2.60E-12,,
,1.937,-2.71E-12,,
,1.939,-1.42E-12,,
,1.941,2.97E-13,,
,1.943,1.80E-12,,
,1.945,2.12E-12,,
,1.947,9.41E-13,,
,1.949,-4.55E-13,,
,1.951,-1.96E-12,,
,1.953,-2.17E-12,,
,1.955,-1.85E-12,,
,1.957,-2.40E-13,,
,1.959,1.37E-12,,
,1.961,2.55E-12,,
,1.963,2.44E-12,,
,1.965,1.37E-12,,
,1.967,2.97E-13,,
,1.969,-4.55E-13,,
,1.971,-1.33E-13,,
,1.973,9.41E-13,,
,1.975,2.66E-12,,
,1.977,3.73E-12,,
,1.979,3.95E-12,,
,1.981,2.66E-12,,
,1.983,9.41E-13,,
,1.985,-5.62E-13,,
,1.987,-6.69E-13,,
,1.989,2.97E-13,,
,1.991,2.01E-12,,
,1.993,3.62E-12,,
,1.995,4.59E-12,,
,1.997,4.05E-12,,
,1.999,2.77E-12,,
,2.001,1.48E-12,,
,2.003,1.26E-12,,
,2.005,2.01E-12,,
,2.007,3.62E-12,,
,2.009,5.34E-12,,
,2.011,6.42E-12,,
,2.013,6.20E-12,,
,2.015,4.81E-12,,
,2.017,3.41E-12,,
,2.019,2.87E-12,,
,2.021,3.84E-12,,
,2.023,5.56E-12,,
,2.025,7.60E-12,,
,2.027,9.21E-12,,
,2.029,9.53E-12,,
,2.031,8.67E-12,,
,2.033,7.27E-12,,
,2.035,6.63E-12,,
,2.037,6.74E-12,,
,2.039,7.92E-12,,
,2.041,9.53E-12,,
,2.043,1.11E-11,,
,2.045,1.15E-11,,
,2.047,1.06E-11,,
,2.049,9.10E-12,,
,2.051,7.92E-12,,
,2.053,7.70E-12,,
,2.055,8.56E-12,,
,2.057,1.01E-11,,
,2.059,1.19E-11,,
,2.061,1.30E-11,,
,2.063,1.29E-11,,
,2.065,1.16E-11,,
,2.067,1.02E-11,,
,2.069,9.64E-12,,
,2.071,1.01E-11,,
,2.073,1.11E-11,,
,2.075,1.28E-11,,
,2.077,1.36E-11,,
,2.079,1.35E-11,,
,2.081,1.21E-11,,
,2.083,1.04E-11,,
,2.085,9.42E-12,,
,2.087,9.42E-12,,
,2.089,1.06E-11,,
,2.091,1.22E-11,,
,2.093,1.38E-11,,
,2.095,1.46E-11,,
,2.097,1.40E-11,,
,2.099,1.24E-11,,
,2.101,1.10E-11,,
,2.103,1.06E-11,,
,2.105,1.14E-11,,
,2.107,1.29E-11,,
,2.109,1.43E-11,,
,2.111,1.48E-11,,
,2.113,1.40E-11,,
,2.115,1.24E-11,,
,2.117,1.07E-11,,
,2.119,9.53E-12,,
,2.121,9.31E-12,,
,2.123,1.02E-11,,
,2.125,1.17E-11,,
,2.127,1.31E-11,,
,2.129,1.31E-11,,
,2.131,1.19E-11,,
,2.133,1.03E-11,,
,2.135,9.31E-12,,
,2.137,9.31E-12,,
,2.139,1.01E-11,,
,2.141,1.12E-11,,
,2.143,1.22E-11,,
,2.145,1.22E-11,,
,2.147,1.10E-11,,
,2.149,8.99E-12,,
,2.151,7.17E-12,,
,2.153,6.52E-12,,
,2.155,6.85E-12,,
,2.157,8.03E-12,,
,2.159,9.31E-12,,
,2.161,1.04E-11,,
,2.163,1.01E-11,,
,2.165,8.99E-12,,
,2.167,7.38E-12,,
,2.169,6.74E-12,,
,2.171,6.74E-12,,
,2.173,7.70E-12,,
,2.175,8.78E-12,,
,2.177,9.21E-12,,
,2.179,8.99E-12,,
,2.181,7.49E-12,,
,2.183,5.88E-12,,
,2.185,4.38E-12,,
,2.187,4.27E-12,,
,2.189,4.81E-12,,
,2.191,6.31E-12,,
,2.193,7.38E-12,,
,2.195,8.13E-12,,
,2.197,7.27E-12,,
,2.199,5.99E-12,,
,2.201,4.59E-12,,
,2.203,4.16E-12,,
,2.205,4.70E-12,,
,2.207,5.99E-12,,
,2.209,7.38E-12,,
,2.211,8.03E-12,,
,2.213,7.49E-12,,
,2.215,5.99E-12,,
,2.217,4.38E-12,,
,2.219,3.73E-12,,
,2.221,3.95E-12,,
,2.223,5.34E-12,,
,2.225,7.17E-12,,
,2.227,8.89E-12,,
,2.229,9.42E-12,,
,2.231,8.56E-12,,
,2.233,7.38E-12,,
,2.235,6.52E-12,,
,2.237,6.63E-12,,
,2.239,7.49E-12,,
,2.241,9.21E-12,,
,2.243,1.07E-11,,
,2.245,1.15E-11,,
,2.247,1.09E-11,,
,2.249,9.85E-12,,
,2.251,8.99E-12,,
,2.253,8.78E-12,,
,2.255,9.64E-12,,
,2.257,1.12E-11,,
,2.259,1.29E-11,,
,2.261,1.41E-11,,
,2.263,1.41E-11,,
,2.265,1.35E-11,,
,2.267,1.23E-11,,
,2.269,1.18E-11,,
,2.271,1.24E-11,,
,2.273,1.38E-11,,
,2.275,1.55E-11,,
,2.277,1.67E-11,,
,2.279,1.68E-11,,
,2.281,1.56E-11,,
,2.283,1.36E-11,,
,2.285,1.21E-11,,
,2.287,1.16E-11,,
,2.289,1.21E-11,,
,2.291,1.33E-11,,
,2.293,1.44E-11,,
,2.295,1.47E-11,,
,2.297,1.34E-11,,
,2.299,1.17E-11,,
,2.301,9.96E-12,,
,2.303,9.31E-12,,
,2.305,9.42E-12,,
,2.307,1.04E-11,,
,2.309,1.17E-11,,
,2.311,1.24E-11,,
,2.313,1.17E-11,,
,2.315,9.85E-12,,
,2.317,7.92E-12,,
,2.319,6.74E-12,,
,2.321,6.52E-12,,
,2.323,7.06E-12,,
,2.325,8.24E-12,,
,2.327,9.10E-12,,
,2.329,9.10E-12,,
,2.331,7.81E-12,,
,2.333,6.20E-12,,
,2.335,4.81E-12,,
,2.337,4.70E-12,,
,2.339,5.34E-12,,
,2.341,6.95E-12,,
,2.343,8.24E-12,,
,2.345,8.56E-12,,
,2.347,7.49E-12,,
,2.349,5.66E-12,,
,2.351,4.27E-12,,
,2.353,3.62E-12,,
,2.355,3.84E-12,,
,2.357,4.59E-12,,
,2.359,5.77E-12,,
,2.361,6.42E-12,,
,2.363,6.09E-12,,
,2.365,4.48E-12,,
,2.367,3.20E-12,,
,2.369,2.34E-12,,
,2.371,2.44E-12,,
,2.373,3.30E-12,,
,2.375,4.70E-12,,
,2.377,5.99E-12,,
,2.379,5.77E-12,,
,2.381,4.59E-12,,
,2.383,2.66E-12,,
,2.385,1.59E-12,,
,2.387,1.37E-12,,
,2.389,2.44E-12,,
,2.391,4.16E-12,,
,2.393,5.88E-12,,
,2.395,6.74E-12,,
,2.397,6.31E-12,,
,2.399,5.24E-12,,
,2.401,4.27E-12,,
,2.403,4.05E-12,,
,2.405,4.81E-12,,
,2.407,6.09E-12,,
,2.409,7.70E-12,,
,2.411,8.46E-12,,
,2.413,8.13E-12,,
,2.415,6.63E-12,,
,2.417,4.91E-12,,
,2.419,3.95E-12,,
,2.421,4.05E-12,,
,2.423,5.34E-12,,
,2.425,6.95E-12,,
,2.427,8.46E-12,,
,2.429,8.67E-12,,
,2.431,7.92E-12,,
,2.433,6.31E-12,,
,2.435,5.13E-12,,
,2.437,4.91E-12,,
,2.439,5.56E-12,,
,2.441,7.06E-12,,
,2.443,8.35E-12,,
,2.445,8.99E-12,,
,2.447,8.03E-12,,
,2.449,6.20E-12,,
,2.451,4.70E-12,,
,2.453,4.27E-12,,
,2.455,5.02E-12,,
,2.457,6.42E-12,,
,2.459,8.03E-12,,
,2.461,9.21E-12,,
,2.463,9.21E-12,,
,2.465,8.13E-12,,
,2.467,6.63E-12,,
,2.469,5.88E-12,,
,2.471,6.20E-12,,
,2.473,7.49E-12,,
,2.475,9.21E-12,,
,2.477,1.03E-11,,
,2.479,1.03E-11,,
,2.481,8.89E-12,,
,2.483,7.27E-12,,
,2.485,5.77E-12,,
,2.487,5.56E-12,,
,2.489,6.31E-12,,
,2.491,7.81E-12,,
,2.493,9.10E-12,,
,2.495,9.42E-12,,
,2.497,8.89E-12,,
,2.499,7.27E-12,,
,2.501,5.99E-12,,
,2.503,5.56E-12,,
,2.505,6.31E-12,,
,2.507,7.92E-12,,
,2.509,9.21E-12,,
,2.511,9.96E-12,,
,2.513,8.99E-12,,
,2.515,7.17E-12,,
,2.517,5.02E-12,,
,2.519,3.73E-12,,
,2.521,3.73E-12,,
,2.523,4.81E-12,,
,2.525,6.31E-12,,
,2.527,7.49E-12,,
,2.529,7.70E-12,,
,2.531,6.95E-12,,
,2.533,5.66E-12,,
,2.535,4.59E-12,,
,2.537,4.48E-12,,
,2.539,5.24E-12,,
,2.541,6.63E-12,,
,2.543,7.81E-12,,
,2.545,8.24E-12,,
,2.547,7.17E-12,,
,2.549,5.34E-12,,
,2.551,3.30E-12,,
,2.553,2.34E-12,,
,2.555,2.77E-12,,
,2.557,3.84E-12,,
,2.559,5.56E-12,,
,2.561,6.42E-12,,
,2.563,6.52E-12,,
,2.565,5.45E-12,,
,2.567,4.27E-12,,
,2.569,3.73E-12,,
,2.571,4.05E-12,,
,2.573,5.34E-12,,
,2.575,7.06E-12,,
,2.577,8.13E-12,,
,2.579,8.03E-12,,
,2.581,6.74E-12,,
,2.583,5.13E-12,,
,2.585,3.95E-12,,
,2.587,3.84E-12,,
,2.589,4.81E-12,,
,2.591,6.63E-12,,
,2.593,8.13E-12,,
,2.595,8.89E-12,,
,2.597,8.24E-12,,
,2.599,7.17E-12,,
,2.601,6.31E-12,,
,2.603,6.42E-12,,
,2.605,7.27E-12,,
,2.607,8.67E-12,,
,2.609,9.96E-12,,
,2.611,1.08E-11,,
,2.613,1.03E-11,,
,2.615,8.46E-12,,
,2.617,6.42E-12,,
,2.619,5.34E-12,,
,2.621,5.45E-12,,
,2.623,6.63E-12,,
,2.625,8.24E-12,,
,2.627,9.74E-12,,
,2.629,9.85E-12,,
,2.631,8.67E-12,,
,2.633,7.06E-12,,
,2.635,5.88E-12,,
,2.637,5.88E-12,,
,2.639,6.63E-12,,
,2.641,7.92E-12,,
,2.643,8.78E-12,,
,2.645,9.10E-12,,
,2.647,8.03E-12,,
,2.649,6.42E-12,,
,2.651,4.70E-12,,
,2.653,4.16E-12,,
,2.655,4.48E-12,,
,2.657,5.77E-12,,
,2.659,7.38E-12,,
,2.661,8.46E-12,,
,2.663,8.13E-12,,
,2.665,6.74E-12,,
,2.667,5.13E-12,,
,2.669,4.27E-12,,
,2.671,4.27E-12,,
,2.673,5.02E-12,,
,2.675,6.20E-12,,
,2.677,7.06E-12,,
,2.679,6.95E-12,,
,2.681,5.66E-12,,
,2.683,3.41E-12,,
,2.685,1.80E-12,,
,2.687,1.05E-12,,
,2.689,1.91E-12,,
,2.691,3.09E-12,,
,2.693,4.27E-12,,
,2.695,4.81E-12,,
,2.697,4.05E-12,,
,2.699,2.66E-12,,
,2.701,9.41E-13,,
,2.703,4.04E-13,,
,2.705,6.19E-13,,
,2.707,1.91E-12,,
,2.709,3.52E-12,,
,2.711,4.38E-12,,
,2.713,3.95E-12,,
,2.715,2.23E-12,,
,2.717,6.19E-13,,
,2.719,-5.62E-13,,
,2.721,-6.69E-13,,
,2.723,8.20E-14,,
,2.725,1.59E-12,,
,2.727,2.66E-12,,
,2.729,2.55E-12,,
,2.731,1.37E-12,,
,2.733,-3.47E-13,,
,2.735,-1.21E-12,,
,2.737,-1.42E-12,,
,2.739,-4.55E-13,,
,2.741,7.26E-13,,
,2.743,2.23E-12,,
,2.745,2.77E-12,,
,2.747,2.01E-12,,
,2.749,-2.53E-14,,
,2.751,-1.74E-12,,
,2.753,-2.60E-12,,
,2.755,-2.17E-12,,
,2.757,-1.10E-12,,
,2.759,4.04E-13,,
,2.761,1.48E-12,,
,2.763,1.16E-12,,
,2.765,-2.40E-13,,
,2.767,-2.07E-12,,
,2.769,-2.92E-12,,
,2.771,-2.71E-12,,
,2.773,-1.74E-12,,
,2.775,-2.40E-13,,
,2.777,9.41E-13,,
,2.779,1.37E-12,,
,2.781,1.89E-13,,
,2.783,-1.85E-12,,
,2.785,-3.35E-12,,
,2.787,-3.78E-12,,
,2.789,-2.92E-12,,
,2.791,-1.74E-12,,
,2.793,-4.55E-13,,
,2.795,8.20E-14,,
,2.797,-2.40E-13,,
,2.799,-1.42E-12,,
,2.801,-2.39E-12,,
,2.803,-2.92E-12,,
,2.805,-2.28E-12,,
,2.807,-7.77E-13,,
,2.809,1.16E-12,,
,2.811,2.44E-12,,
,2.813,2.23E-12,,
,2.815,9.41E-13,,
,2.817,-4.55E-13,,
,2.819,-1.21E-12,,
,2.821,-9.92E-13,,
,2.823,-1.33E-13,,
,2.825,1.37E-12,,
,2.827,2.44E-12,,
,2.829,2.77E-12,,
,2.831,1.91E-12,,
,2.833,5.11E-13,,
,2.835,-4.55E-13,,
,2.837,-6.69E-13,,
,2.839,2.97E-13,,
,2.841,1.91E-12,,
,2.843,3.62E-12,,
,2.845,4.48E-12,,
,2.847,3.62E-12,,
,2.849,1.91E-12,,
,2.851,1.89E-13,,
,2.853,-3.47E-13,,
,2.855,2.97E-13,,
,2.857,1.91E-12,,
,2.859,3.84E-12,,
,2.861,4.91E-12,,
,2.863,4.81E-12,,
,2.865,3.62E-12,,
,2.867,2.23E-12,,
,2.869,1.48E-12,,
,2.871,1.80E-12,,
,2.873,3.09E-12,,
,2.875,4.70E-12,,
,2.877,5.99E-12,,
,2.879,6.20E-12,,
,2.881,5.02E-12,,
,2.883,2.98E-12,,
,2.885,1.59E-12,,
,2.887,1.16E-12,,
,2.889,2.12E-12,,
,2.891,3.41E-12,,
,2.893,5.13E-12,,
,2.895,5.99E-12,,
,2.897,5.66E-12,,
,2.899,4.05E-12,,
,2.901,2.66E-12,,
,2.903,2.23E-12,,
,2.905,2.98E-12,,
,2.907,3.95E-12,,
,2.909,5.24E-12,,
,2.911,5.99E-12,,
,2.913,5.77E-12,,
,2.915,4.27E-12,,
,2.917,2.44E-12,,
,2.919,1.26E-12,,
,2.921,1.16E-12,,
,2.923,2.23E-12,,
,2.925,3.95E-12,,
,2.927,5.34E-12,,
,2.929,5.66E-12,,
,2.931,4.59E-12,,
,2.933,2.98E-12,,
,2.935,1.59E-12,,
,2.937,1.26E-12,,
,2.939,2.12E-12,,
,2.941,3.73E-12,,
,2.943,5.13E-12,,
,2.945,5.45E-12,,
,2.947,4.38E-12,,
,2.949,2.34E-12,,
,2.951,7.26E-13,,
,2.953,2.97E-13,,
,2.955,1.26E-12,,
,2.957,2.98E-12,,
,2.959,4.81E-12,,
,2.961,5.88E-12,,
,2.963,5.45E-12,,
,2.965,4.27E-12,,
,2.967,2.87E-12,,
,2.969,2.23E-12,,
,2.971,2.34E-12,,
,2.973,3.41E-12,,
,2.975,5.02E-12,,
,2.977,6.09E-12,,
,2.979,6.42E-12,,
,2.981,5.34E-12,,
,2.983,3.84E-12,,
,2.985,2.44E-12,,
,2.987,2.23E-12,,
,2.989,2.98E-12,,
,2.991,4.48E-12,,
,2.993,6.09E-12,,
,2.995,6.85E-12,,
,2.997,6.63E-12,,
,2.999,5.56E-12,,
,3.001,4.81E-12,,
,3.003,4.81E-12,,
,3.005,5.45E-12,,
,3.007,6.74E-12,,
,3.009,8.03E-12,,
,3.011,8.78E-12,,
,3.013,8.13E-12,,
,3.015,6.31E-12,,
,3.017,4.38E-12,,
,3.019,3.09E-12,,
,3.021,2.66E-12,,
,3.023,3.30E-12,,
,3.025,4.70E-12,,
,3.027,6.20E-12,,
,3.029,6.52E-12,,
,3.031,5.56E-12,,
,3.033,3.62E-12,,
,3.035,2.44E-12,,
,3.037,2.23E-12,,
,3.039,3.30E-12,,
,3.041,4.81E-12,,
,3.043,6.31E-12,,
,3.045,6.85E-12,,
,3.047,5.99E-12,,
,3.049,4.16E-12,,
,3.051,2.55E-12,,
,3.053,1.59E-12,,
,3.055,1.91E-12,,
,3.057,3.09E-12,,
,3.059,4.91E-12,,
,3.061,5.88E-12,,
,3.063,5.77E-12,,
,3.065,4.70E-12,,
,3.067,3.52E-12,,
,3.069,3.09E-12,,
,3.071,3.41E-12,,
,3.073,4.70E-12,,
,3.075,6.31E-12,,
,3.077,7.60E-12,,
,3.079,7.60E-12,,
,3.081,6.20E-12,,
,3.083,4.48E-12,,
,3.085,3.30E-12,,
,3.087,2.98E-12,,
,3.089,3.41E-12,,
,3.091,4.81E-12,,
,3.093,6.20E-12,,
,3.095,7.06E-12,,
,3.097,6.42E-12,,
,3.099,5.13E-12,,
,3.101,3.62E-12,,
,3.103,3.30E-12,,
,3.105,3.84E-12,,
,3.107,5.24E-12,,
,3.109,6.42E-12,,
,3.111,7.17E-12,,
,3.113,6.63E-12,,
,3.115,5.13E-12,,
,3.117,3.20E-12,,
,3.119,2.23E-12,,
,3.121,2.23E-12,,
,3.123,3.20E-12,,
,3.125,4.70E-12,,
,3.127,5.99E-12,,
,3.129,6.31E-12,,
,3.131,5.24E-12,,
,3.133,3.62E-12,,
,3.135,2.23E-12,,
,3.137,2.12E-12,,
,3.139,2.98E-12,,
,3.141,4.91E-12,,
,3.143,6.42E-12,,
,3.145,7.06E-12,,
,3.147,6.09E-12,,
,3.149,4.05E-12,,
,3.151,2.34E-12,,
,3.153,1.16E-12,,
,3.155,1.59E-12,,
,3.157,2.66E-12,,
,3.159,4.38E-12,,
,3.161,5.34E-12,,
,3.163,5.02E-12,,
,3.165,3.84E-12,,
,3.167,2.34E-12,,
,3.169,1.59E-12,,
,3.171,1.91E-12,,
,3.173,2.98E-12,,
,3.175,4.59E-12,,
,3.177,5.77E-12,,
,3.179,5.99E-12,,
,3.181,4.59E-12,,
,3.183,2.87E-12,,
,3.185,1.48E-12,,
,3.187,1.59E-12,,
,3.189,2.34E-12,,
,3.191,4.05E-12,,
,3.193,5.34E-12,,
,3.195,5.88E-12,,
,3.197,5.02E-12,,
,3.199,3.62E-12,,
,3.201,2.55E-12,,
,3.203,2.12E-12,,
,3.205,2.66E-12,,
,3.207,3.84E-12,,
,3.209,5.45E-12,,
,3.211,6.20E-12,,
,3.213,5.99E-12,,
,3.215,4.48E-12,,
,3.217,2.87E-12,,
,3.219,1.69E-12,,
,3.221,1.59E-12,,
,3.223,2.66E-12,,
,3.225,4.38E-12,,
,3.227,5.99E-12,,
,3.229,6.52E-12,,
,3.231,5.45E-12,,
,3.233,4.05E-12,,
,3.235,2.98E-12,,
,3.237,3.09E-12,,
,3.239,3.95E-12,,
,3.241,5.56E-12,,
,3.243,7.06E-12,,
,3.245,7.92E-12,,
,3.247,7.60E-12,,
,3.249,6.63E-12,,
,3.251,5.56E-12,,
,3.253,5.24E-12,,
,3.255,5.88E-12,,
,3.257,7.17E-12,,
,3.259,8.89E-12,,
,3.261,9.96E-12,,
,3.263,1.01E-11,,
,3.265,8.78E-12,,
,3.267,7.70E-12,,
,3.269,7.38E-12,,
,3.271,8.13E-12,,
,3.273,9.31E-12,,
,3.275,1.09E-11,,
,3.277,1.20E-11,,
,3.279,1.21E-11,,
,3.281,1.07E-11,,
,3.283,8.67E-12,,
,3.285,6.95E-12,,
,3.287,6.20E-12,,
,3.289,6.74E-12,,
,3.291,7.81E-12,,
,3.293,9.10E-12,,
,3.295,9.74E-12,,
,3.297,9.10E-12,,
,3.299,7.70E-12,,
,3.301,6.09E-12,,
,3.303,5.56E-12,,
,3.305,5.88E-12,,
,3.307,7.06E-12,,
,3.309,8.56E-12,,
,3.311,9.64E-12,,
,3.313,9.21E-12,,
,3.315,7.60E-12,,
,3.317,5.56E-12,,
,3.319,4.48E-12,,
,3.321,4.59E-12,,
,3.323,5.56E-12,,
,3.325,7.06E-12,,
,3.327,8.35E-12,,
,3.329,8.89E-12,,
,3.331,8.24E-12,,
,3.333,7.06E-12,,
,3.335,6.09E-12,,
,3.337,6.09E-12,,
,3.339,7.06E-12,,
,3.341,8.67E-12,,
,3.343,1.02E-11,,
,3.345,1.08E-11,,
,3.347,9.96E-12,,
,3.349,8.46E-12,,
,3.351,6.74E-12,,
,3.353,6.09E-12,,
,3.355,6.20E-12,,
,3.357,7.17E-12,,
,3.359,8.13E-12,,
,3.361,8.99E-12,,
,3.363,8.67E-12,,
,3.365,7.70E-12,,
,3.367,6.09E-12,,
,3.369,5.24E-12,,
,3.371,5.13E-12,,
,3.373,5.99E-12,,
,3.375,7.17E-12,,
,3.377,8.24E-12,,
,3.379,8.24E-12,,
,3.381,6.95E-12,,
,3.383,5.13E-12,,
,3.385,3.73E-12,,
,3.387,3.20E-12,,
,3.389,3.73E-12,,
,3.391,4.91E-12,,
,3.393,6.31E-12,,
,3.395,6.74E-12,,
,3.397,5.88E-12,,
,3.399,4.27E-12,,
,3.401,2.77E-12,,
,3.403,2.12E-12,,
,3.405,2.77E-12,,
,3.407,4.05E-12,,
,3.409,5.77E-12,,
,3.411,6.63E-12,,
,3.413,6.63E-12,,
,3.415,5.34E-12,,
,3.417,3.62E-12,,
,3.419,2.44E-12,,
,3.421,2.44E-12,,
,3.423,3.52E-12,,
,3.425,5.24E-12,,
,3.427,6.31E-12,,
,3.429,6.63E-12,,
,3.431,5.56E-12,,
,3.433,4.38E-12,,
,3.435,3.52E-12,,
,3.437,3.41E-12,,
,3.439,4.27E-12,,
,3.441,5.77E-12,,
,3.443,7.38E-12,,
,3.445,8.13E-12,,
,3.447,7.49E-12,,
,3.449,5.88E-12,,
,3.451,4.27E-12,,
,3.453,3.30E-12,,
,3.455,3.52E-12,,
,3.457,4.48E-12,,
,3.459,5.88E-12,,
,3.461,6.85E-12,,
,3.463,6.52E-12,,
,3.465,5.34E-12,,
,3.467,3.95E-12,,
,3.469,3.41E-12,,
,3.471,3.73E-12,,
,3.473,4.91E-12,,
,3.475,6.85E-12,,
,3.477,8.46E-12,,
,3.479,9.21E-12,,
,3.481,7.92E-12,,
,3.483,6.09E-12,,
,3.485,4.59E-12,,
,3.487,4.16E-12,,
,3.489,5.13E-12,,
,3.491,6.52E-12,,
,3.493,8.35E-12,,
,3.495,9.10E-12,,
,3.497,8.46E-12,,
,3.499,7.17E-12,,
,3.501,5.77E-12,,
,3.503,5.45E-12,,
,3.505,5.77E-12,,
,3.507,6.95E-12,,
,3.509,8.35E-12,,
,3.511,9.53E-12,,
,3.513,9.53E-12,,
,3.515,8.13E-12,,
,3.517,6.31E-12,,
,3.519,5.13E-12,,
,3.521,5.34E-12,,
,3.523,6.42E-12,,
,3.525,7.70E-12,,
,3.527,8.78E-12,,
,3.529,8.99E-12,,
,3.531,8.46E-12,,
,3.533,7.17E-12,,
,3.535,6.31E-12,,
,3.537,6.20E-12,,
,3.539,7.06E-12,,
,3.541,8.46E-12,,
,3.543,9.74E-12,,
,3.545,1.04E-11,,
,3.547,9.42E-12,,
,3.549,7.81E-12,,
,3.551,6.09E-12,,
,3.553,5.56E-12,,
,3.555,5.99E-12,,
,3.557,7.60E-12,,
,3.559,9.53E-12,,
,3.561,1.07E-11,,
,3.563,1.06E-11,,
,3.565,9.31E-12,,
,3.567,7.92E-12,,
,3.569,7.17E-12,,
,3.571,7.70E-12,,
,3.573,9.10E-12,,
,3.575,1.07E-11,,
,3.577,1.17E-11,,
,3.579,1.16E-11,,
,3.581,1.05E-11,,
,3.583,9.21E-12,,
,3.585,8.03E-12,,
,3.587,7.60E-12,,
,3.589,7.92E-12,,
,3.591,9.21E-12,,
,3.593,1.07E-11,,
,3.595,1.14E-11,,
,3.597,1.10E-11,,
,3.599,9.64E-12,,
,3.601,8.46E-12,,
,3.603,7.92E-12,,
,3.605,8.56E-12,,
,3.607,9.74E-12,,
,3.609,1.12E-11,,
,3.611,1.21E-11,,
,3.613,1.17E-11,,
,3.615,9.96E-12,,
,3.617,7.81E-12,,
,3.619,6.52E-12,,
,3.621,6.20E-12,,
,3.623,6.95E-12,,
,3.625,8.78E-12,,
,3.627,1.02E-11,,
,3.629,1.05E-11,,
,3.631,9.21E-12,,
,3.633,7.38E-12,,
,3.635,6.31E-12,,
,3.637,5.88E-12,,
,3.639,6.63E-12,,
,3.641,7.70E-12,,
,3.643,8.99E-12,,
,3.645,9.10E-12,,
,3.647,8.03E-12,,
,3.649,5.99E-12,,
,3.651,4.38E-12,,
,3.653,3.30E-12,,
,3.655,3.62E-12,,
,3.657,4.70E-12,,
,3.659,6.63E-12,,
,3.661,7.70E-12,,
,3.663,7.70E-12,,
,3.665,6.31E-12,,
,3.667,4.70E-12,,
,3.669,3.84E-12,,
,3.671,3.95E-12,,
,3.673,5.02E-12,,
,3.675,6.74E-12,,
,3.677,8.13E-12,,
,3.679,8.46E-12,,
,3.681,7.17E-12,,
,3.683,5.24E-12,,
,3.685,3.52E-12,,
,3.687,3.09E-12,,
,3.689,3.73E-12,,
,3.691,5.13E-12,,
,3.693,6.52E-12,,
,3.695,6.95E-12,,
,3.697,6.42E-12,,
,3.699,4.81E-12,,
,3.701,3.41E-12,,
,3.703,2.87E-12,,
,3.705,3.41E-12,,
,3.707,4.91E-12,,
,3.709,6.52E-12,,
,3.711,7.38E-12,,
,3.713,7.27E-12,,
,3.715,5.77E-12,,
,3.717,4.38E-12,,
,3.719,3.20E-12,,
,3.721,3.09E-12,,
,3.723,3.95E-12,,
,3.725,5.34E-12,,
,3.727,6.52E-12,,
,3.729,6.85E-12,,
,3.731,5.99E-12,,
,3.733,4.81E-12,,
,3.735,3.62E-12,,
,3.737,3.52E-12,,
,3.739,4.48E-12,,
,3.741,5.99E-12,,
,3.743,7.49E-12,,
,3.745,7.60E-12,,
,3.747,6.74E-12,,
,3.749,4.81E-12,,
,3.751,3.09E-12,,
,3.753,2.23E-12,,
,3.755,2.44E-12,,
,3.757,3.84E-12,,
,3.759,5.56E-12,,
,3.761,6.95E-12,,
,3.763,6.95E-12,,
,3.765,6.09E-12,,
,3.767,4.91E-12,,
,3.769,4.48E-12,,
,3.771,4.59E-12,,
,3.773,5.56E-12,,
,3.775,7.06E-12,,
,3.777,8.56E-12,,
,3.779,8.89E-12,,
,3.781,7.70E-12,,
,3.783,5.66E-12,,
,3.785,3.95E-12,,
,3.787,3.52E-12,,
,3.789,4.05E-12,,
,3.791,5.56E-12,,
,3.793,7.06E-12,,
,3.795,8.03E-12,,
,3.797,7.81E-12,,
,3.799,6.63E-12,,
,3.801,5.34E-12,,
,3.803,5.13E-12,,
,3.805,6.09E-12,,
,3.807,7.81E-12,,
,3.809,9.53E-12,,
,3.811,1.04E-11,,
,3.813,1.01E-11,,
,3.815,8.46E-12,,
,3.817,6.74E-12,,
,3.819,5.66E-12,,
,3.821,5.66E-12,,
,3.823,6.52E-12,,
,3.825,8.03E-12,,
,3.827,9.21E-12,,
,3.829,9.53E-12,,
,3.831,8.24E-12,,
,3.833,6.74E-12,,
,3.835,5.45E-12,,
,3.837,5.13E-12,,
,3.839,5.88E-12,,
,3.841,7.06E-12,,
,3.843,8.78E-12,,
,3.845,9.21E-12,,
,3.847,8.67E-12,,
,3.849,6.95E-12,,
,3.851,5.66E-12,,
,3.853,5.13E-12,,
,3.855,5.45E-12,,
,3.857,6.31E-12,,
,3.859,7.60E-12,,
,3.861,8.67E-12,,
,3.863,8.78E-12,,
,3.865,7.92E-12,,
,3.867,6.85E-12,,
,3.869,6.31E-12,,
,3.871,6.74E-12,,
,3.873,8.03E-12,,
,3.875,9.96E-12,,
,3.877,1.16E-11,,
,3.879,1.22E-11,,
,3.881,1.15E-11,,
,3.883,9.74E-12,,
,3.885,8.13E-12,,
,3.887,7.38E-12,,
,3.889,7.70E-12,,
,3.891,8.78E-12,,
,3.893,9.85E-12,,
,3.895,1.03E-11,,
,3.897,9.31E-12,,
,3.899,7.60E-12,,
,3.901,5.99E-12,,
,3.903,5.24E-12,,
,3.905,5.56E-12,,
,3.907,6.52E-12,,
,3.909,7.81E-12,,
,3.911,8.46E-12,,
,3.913,8.13E-12,,
,3.915,6.85E-12,,
,3.917,5.02E-12,,
,3.919,3.62E-12,,
,3.921,3.20E-12,,
,3.923,3.84E-12,,
,3.925,5.02E-12,,
,3.927,6.09E-12,,
,3.929,6.31E-12,,
,3.931,5.24E-12,,
,3.933,3.62E-12,,
,3.935,2.01E-12,,
,3.937,1.59E-12,,
,3.939,2.34E-12,,
,3.941,3.84E-12,,
,3.943,5.45E-12,,
,3.945,5.88E-12,,
,3.947,5.24E-12,,
,3.949,3.41E-12,,
,3.951,1.59E-12,,
,3.953,8.34E-13,,
,3.955,8.34E-13,,
,3.957,1.91E-12,,
,3.959,2.87E-12,,
,3.961,4.05E-12,,
,3.963,3.84E-12,,
,3.965,2.87E-12,,
,3.967,1.26E-12,,
,3.969,2.97E-13,,
,3.971,2.97E-13,,
,3.973,1.37E-12,,
,3.975,3.09E-12,,
,3.977,4.38E-12,,
,3.979,4.81E-12,,
,3.981,3.73E-12,,
,3.983,2.12E-12,,
,3.985,6.19E-13,,
,3.987,8.20E-14,,
,3.989,6.19E-13,,
,3.991,1.91E-12,,
,3.993,3.41E-12,,
,3.995,4.05E-12,,
,3.997,3.41E-12,,
,3.999,1.69E-12,,
,4.001,4.04E-13,,
,4.003,-1.33E-13,,
,4.005,7.26E-13,,
,4.007,1.91E-12,,
,4.009,3.73E-12,,
,4.011,4.70E-12,,
,4.013,4.70E-12,,
,4.015,3.30E-12,,
,4.017,1.48E-12,,
,4.019,8.20E-14,,
,4.021,-4.55E-13,,
,4.023,2.97E-13,,
,4.025,1.69E-12,,
,4.027,2.98E-12,,
,4.029,3.30E-12,,
,4.031,2.55E-12,,
,4.033,1.26E-12,,
,4.035,1.89E-13,,
,4.037,1.89E-13,,
,4.039,6.19E-13,,
,4.041,2.12E-12,,
,4.043,3.52E-12,,
,4.045,4.59E-12,,
,4.047,4.05E-12,,
,4.049,2.66E-12,,
,4.051,8.34E-13,,
,4.053,-1.33E-13,,
,4.055,-2.53E-14,,
,4.057,1.26E-12,,
,4.059,2.87E-12,,
,4.061,3.84E-12,,
,4.063,4.05E-12,,
,4.065,2.66E-12,,
,4.067,1.05E-12,,
,4.069,-2.53E-14,,
,4.071,4.04E-13,,
,4.073,1.91E-12,,
,4.075,3.73E-12,,
,4.077,5.56E-12,,
,4.079,6.09E-12,,
,4.081,5.24E-12,,
,4.083,3.41E-12,,
,4.085,2.01E-12,,
,4.087,1.59E-12,,
,4.089,2.34E-12,,
,4.091,3.52E-12,,
,4.093,5.02E-12,,
,4.095,5.66E-12,,
,4.097,5.56E-12,,
,4.099,4.16E-12,,
,4.101,2.98E-12,,
,4.103,2.12E-12,,
,4.105,2.66E-12,,
,4.107,3.84E-12,,
,4.109,5.34E-12,,
,4.111,5.99E-12,,
,4.113,5.34E-12,,
,4.115,3.62E-12,,
,4.117,1.91E-12,,
,4.119,6.19E-13,,
,4.121,4.04E-13,,
,4.123,8.34E-13,,
,4.125,2.12E-12,,
,4.127,3.30E-12,,
,4.129,3.95E-12,,
,4.131,3.09E-12,,
,4.133,1.59E-12,,
,4.135,1.89E-13,,
,4.137,1.89E-13,,
,4.139,1.05E-12,,
,4.141,2.77E-12,,
,4.143,4.27E-12,,
,4.145,5.02E-12,,
,4.147,4.48E-12,,
,4.149,2.66E-12,,
,4.151,8.34E-13,,
,4.153,-2.40E-13,,
,4.155,-2.53E-14,,
,4.157,1.16E-12,,
,4.159,2.77E-12,,
,4.161,3.73E-12,,
,4.163,3.62E-12,,
,4.165,2.23E-12,,
,4.167,9.41E-13,,
,4.169,1.89E-13,,
,4.171,6.19E-13,,
,4.173,1.69E-12,,
,4.175,3.52E-12,,
,4.177,4.70E-12,,
,4.179,5.13E-12,,
,4.181,3.84E-12,,
,4.183,2.23E-12,,
,4.185,5.11E-13,,
,4.187,-2.40E-13,,
,4.189,-1.33E-13,,
,4.191,1.05E-12,,
,4.193,2.34E-12,,
,4.195,2.98E-12,,
,4.197,2.55E-12,,
,4.199,1.48E-12,,
,4.201,4.04E-13,,
,4.203,-2.40E-13,,
,4.205,4.04E-13,,
,4.207,2.01E-12,,
,4.209,3.95E-12,,
,4.211,5.13E-12,,
,4.213,5.02E-12,,
,4.215,3.95E-12,,
,4.217,2.12E-12,,
,4.219,1.05E-12,,
,4.221,8.34E-13,,
,4.223,1.69E-12,,
,4.225,3.09E-12,,
,4.227,4.38E-12,,
,4.229,4.70E-12,,
,4.231,3.62E-12,,
,4.233,2.01E-12,,
,4.235,7.26E-13,,
,4.237,4.04E-13,,
,4.239,1.26E-12,,
,4.241,2.87E-12,,
,4.243,4.81E-12,,
,4.245,5.45E-12,,
,4.247,5.13E-12,,
,4.249,3.41E-12,,
,4.251,1.69E-12,,
,4.253,6.19E-13,,
,4.255,8.34E-13,,
,4.257,2.23E-12,,
,4.259,3.95E-12,,
,4.261,5.34E-12,,
,4.263,5.56E-12,,
,4.265,4.48E-12,,
,4.267,2.87E-12,,
,4.269,2.01E-12,,
,4.271,2.34E-12,,
,4.273,3.62E-12,,
,4.275,5.45E-12,,
,4.277,7.06E-12,,
,4.279,7.60E-12,,
,4.281,6.95E-12,,
,4.283,5.45E-12,,
,4.285,4.16E-12,,
,4.287,3.41E-12,,
,4.289,4.05E-12,,
,4.291,5.45E-12,,
,4.293,7.17E-12,,
,4.295,8.13E-12,,
,4.297,7.81E-12,,
,4.299,6.52E-12,,
,4.301,5.24E-12,,
,4.303,4.81E-12,,
,4.305,5.24E-12,,
,4.307,6.31E-12,,
,4.309,7.70E-12,,
,4.311,8.99E-12,,
,4.313,8.99E-12,,
,4.315,7.81E-12,,
,4.317,6.20E-12,,
,4.319,5.13E-12,,
,4.321,5.24E-12,,
,4.323,5.88E-12,,
,4.325,7.49E-12,,
,4.327,8.56E-12,,
,4.329,8.89E-12,,
,4.331,7.70E-12,,
,4.333,6.31E-12,,
,4.335,5.02E-12,,
,4.337,4.70E-12,,
,4.339,5.45E-12,,
,4.341,7.17E-12,,
,4.343,8.78E-12,,
,4.345,9.74E-12,,
,4.347,9.10E-12,,
,4.349,7.49E-12,,
,4.351,5.45E-12,,
,4.353,4.48E-12,,
,4.355,4.70E-12,,
,4.357,5.99E-12,,
,4.359,7.49E-12,,
,4.361,8.78E-12,,
,4.363,8.99E-12,,
,4.365,8.13E-12,,
,4.367,6.74E-12,,
,4.369,5.56E-12,,
,4.371,5.45E-12,,
,4.373,6.20E-12,,
,4.375,7.60E-12,,
,4.377,9.10E-12,,
,4.379,9.31E-12,,
,4.381,8.24E-12,,
,4.383,6.31E-12,,
,4.385,4.91E-12,,
,4.387,4.38E-12,,
,4.389,4.91E-12,,
,4.391,6.31E-12,,
,4.393,7.92E-12,,
,4.395,8.67E-12,,
,4.397,8.13E-12,,
,4.399,6.85E-12,,
,4.401,5.34E-12,,
,4.403,4.81E-12,,
,4.405,5.13E-12,,
,4.407,6.42E-12,,
,4.409,7.60E-12,,
,4.411,8.24E-12,,
,4.413,7.60E-12,,
,4.415,5.99E-12,,
,4.417,3.84E-12,,
,4.419,2.66E-12,,
,4.421,2.23E-12,,
,4.423,3.20E-12,,
,4.425,4.38E-12,,
,4.427,5.88E-12,,
,4.429,6.20E-12,,
,4.431,5.24E-12,,
,4.433,3.62E-12,,
,4.435,2.12E-12,,
,4.437,1.48E-12,,
,4.439,1.59E-12,,
,4.441,2.66E-12,,
,4.443,3.95E-12,,
,4.445,4.38E-12,,
,4.447,3.52E-12,,
,4.449,1.80E-12,,
,4.451,8.20E-14,,
,4.453,-7.77E-13,,
,4.455,-4.55E-13,,
,4.457,6.19E-13,,
,4.459,2.12E-12,,
,4.461,3.20E-12,,
,4.463,3.41E-12,,
,4.465,2.23E-12,,
,4.467,6.19E-13,,
,4.469,-4.55E-13,,
,4.471,-2.40E-13,,
,4.473,8.34E-13,,
,4.475,2.44E-12,,
,4.477,3.62E-12,,
,4.479,3.95E-12,,
,4.481,3.09E-12,,
,4.483,1.37E-12,,
,4.485,8.20E-14,,
,4.487,-3.47E-13,,
,4.489,4.04E-13,,
,4.491,1.69E-12,,
,4.493,2.98E-12,,
,4.495,3.52E-12,,
,4.497,2.87E-12,,
,4.499,1.26E-12,,
,4.501,-3.47E-13,,
,4.503,-1.10E-12,,
,4.505,-6.69E-13,,
,4.507,6.19E-13,,
,4.509,2.01E-12,,
,4.511,2.98E-12,,
,4.513,2.98E-12,,
,4.515,1.80E-12,,
,4.517,4.04E-13,,
,4.519,-8.84E-13,,
,4.521,-9.92E-13,,
,4.523,-3.47E-13,,
,4.525,1.05E-12,,
,4.527,1.91E-12,,
,4.529,1.69E-12,,
,4.531,2.97E-13,,
,4.533,-1.42E-12,,
,4.535,-2.71E-12,,
,4.537,-3.03E-12,,
,4.539,-2.39E-12,,
,4.541,-7.77E-13,,
,4.543,1.05E-12,,
,4.545,2.01E-12,,
,4.547,1.26E-12,,
,4.549,-4.55E-13,,
,4.551,-2.17E-12,,
,4.553,-3.25E-12,,
,4.555,-3.25E-12,,
,4.557,-2.60E-12,,
,4.559,-1.10E-12,,
,4.561,-1.33E-13,,
,4.563,-2.40E-13,,
,4.565,-1.64E-12,,
,4.567,-3.46E-12,,
,4.569,-4.43E-12,,
,4.571,-4.32E-12,,
,4.573,-3.14E-12,,
,4.575,-1.64E-12,,
,4.577,-3.47E-13,,
,4.579,-2.40E-13,,
,4.581,-1.31E-12,,
,4.583,-3.35E-12,,
,4.585,-5.07E-12,,
,4.587,-6.04E-12,,
,4.589,-5.72E-12,,
,4.591,-4.75E-12,,
,4.593,-3.68E-12,,
,4.595,-3.35E-12,,
,4.597,-4.21E-12,,
,4.599,-5.50E-12,,
,4.601,-6.79E-12,,
,4.603,-7.11E-12,,
,4.605,-6.57E-12,,
,4.607,-4.75E-12,,
,4.609,-2.60E-12,,
,4.611,-9.92E-13,,
,4.613,-7.77E-13,,
,4.615,-1.64E-12,,
,4.617,-3.03E-12,,
,4.619,-4.21E-12,,
,4.621,-4.32E-12,,
,4.623,-3.35E-12,,
,4.625,-1.74E-12,,
,4.627,-2.40E-13,,
,4.629,7.26E-13,,
,4.631,5.11E-13,,
,4.633,-3.47E-13,,
,4.635,-1.42E-12,,
,4.637,-1.21E-12,,
,4.639,-2.53E-14,,
,4.641,1.91E-12,,
,4.643,3.95E-12,,
,4.645,5.13E-12,,
,4.647,5.13E-12,,
,4.649,3.95E-12,,
,4.651,2.98E-12,,
,4.653,2.87E-12,,
,4.655,3.84E-12,,
,4.657,5.66E-12,,
,4.659,8.13E-12,,
,4.661,1.02E-11,,
,4.663,1.10E-11,,
,4.665,1.04E-11,,
,4.667,9.64E-12,,
,4.669,9.31E-12,,
,4.671,1.02E-11,,
,4.673,1.17E-11,,
,4.675,1.37E-11,,
,4.677,1.56E-11,,
,4.679,1.62E-11,,
,4.681,1.52E-11,,
,4.683,1.34E-11,,
,4.685,1.21E-11,,
,4.687,1.19E-11,,
,4.689,1.26E-11,,
,4.691,1.43E-11,,
,4.693,1.60E-11,,
,4.695,1.70E-11,,
,4.697,1.70E-11,,
,4.699,1.59E-11,,
,4.701,1.48E-11,,
,4.703,1.45E-11,,
,4.705,1.53E-11,,
,4.707,1.68E-11,,
,4.709,1.87E-11,,
,4.711,1.99E-11,,
,4.713,2.02E-11,,
,4.715,1.90E-11,,
,4.717,1.80E-11,,
,4.719,1.75E-11,,
,4.721,1.80E-11,,
,4.723,1.93E-11,,
,4.725,2.10E-11,,
,4.727,2.31E-11,,
,4.729,2.39E-11,,
,4.731,2.42E-11,,
,4.733,2.34E-11,,
,4.735,2.32E-11,,
,4.737,2.35E-11,,
,4.739,2.48E-11,,
,4.741,2.66E-11,,
,4.743,2.83E-11,,
,4.745,2.93E-11,,
,4.747,2.86E-11,,
,4.749,2.70E-11,,
,4.751,2.55E-11,,
,4.753,2.47E-11,,
,4.755,2.47E-11,,
,4.757,2.52E-11,,
,4.759,2.64E-11,,
,4.761,2.71E-11,,
,4.763,2.68E-11,,
,4.765,2.51E-11,,
,4.767,2.29E-11,,
,4.769,2.13E-11,,
,4.771,2.08E-11,,
,4.773,2.12E-11,,
,4.775,2.25E-11,,
,4.777,2.37E-11,,
,4.779,2.39E-11,,
,4.781,2.26E-11,,
,4.783,2.08E-11,,
,4.785,1.94E-11,,
,4.787,1.88E-11,,
,4.789,1.89E-11,,
,4.791,1.98E-11,,
,4.793,2.09E-11,,
,4.795,2.13E-11,,
,4.797,2.04E-11,,
,4.799,1.88E-11,,
,4.801,1.70E-11,,
,4.803,1.62E-11,,
,4.805,1.62E-11,,
,4.807,1.70E-11,,
,4.809,1.81E-11,,
,4.811,1.87E-11,,
,4.813,1.80E-11,,
,4.815,1.62E-11,,
,4.817,1.39E-11,,
,4.819,1.25E-11,,
,4.821,1.18E-11,,
,4.823,1.20E-11,,
,4.825,1.23E-11,,
,4.827,1.29E-11,,
,4.829,1.26E-11,,
,4.831,1.14E-11,,
,4.833,9.31E-12,,
,4.835,7.38E-12,,
,4.837,6.31E-12,,
,4.839,6.31E-12,,
,4.841,7.27E-12,,
,4.843,8.24E-12,,
,4.845,8.67E-12,,
,4.847,7.60E-12,,
,4.849,5.77E-12,,
,4.851,3.84E-12,,
,4.853,2.87E-12,,
,4.855,2.98E-12,,
,4.857,3.95E-12,,
,4.859,5.34E-12,,
,4.861,6.31E-12,,
,4.863,6.09E-12,,
,4.865,4.48E-12,,
,4.867,2.44E-12,,
,4.869,1.16E-12,,
,4.871,1.26E-12,,
,4.873,2.44E-12,,
,4.875,4.05E-12,,
,4.877,5.45E-12,,
,4.879,5.99E-12,,
,4.881,5.34E-12,,
,4.883,3.84E-12,,
,4.885,2.66E-12,,
,4.887,2.23E-12,,
,4.889,2.98E-12,,
,4.891,4.38E-12,,
,4.893,5.99E-12,,
,4.895,7.27E-12,,
,4.897,7.38E-12,,
,4.899,6.63E-12,,
,4.901,5.56E-12,,
,4.903,5.13E-12,,
,4.905,5.77E-12,,
,4.907,7.06E-12,,
,4.909,8.99E-12,,
,4.911,1.01E-11,,
,4.913,1.02E-11,,
,4.915,9.10E-12,,
,4.917,7.70E-12,,
,4.919,6.74E-12,,
,4.921,6.52E-12,,
,4.923,7.60E-12,,
,4.925,8.89E-12,,
,4.927,9.96E-12,,
,4.929,1.01E-11,,
,4.931,9.21E-12,,
,4.933,7.81E-12,,
,4.935,6.63E-12,,
,4.937,5.88E-12,,
,4.939,6.20E-12,,
,4.941,7.17E-12,,
,4.943,8.46E-12,,
,4.945,8.89E-12,,
,4.947,7.70E-12,,
,4.949,5.56E-12,,
,4.951,3.20E-12,,
,4.953,1.48E-12,,
,4.955,8.34E-13,,
,4.957,9.41E-13,,
,4.959,1.59E-12,,
,4.961,1.48E-12,,
,4.963,1.89E-13,,
,4.965,-2.28E-12,,
,4.967,-4.96E-12,,
,4.969,-7.22E-12,,
,4.971,-8.40E-12,,
,4.973,-8.51E-12,,
,4.975,-8.18E-12,,
,4.977,-8.08E-12,,
,4.979,-8.94E-12,,
,4.981,-1.11E-11,,
,4.983,-1.39E-11,,
,4.985,-1.66E-11,,
,4.987,-1.80E-11,,
,4.989,-1.85E-11,,
,4.991,-1.84E-11,,
,4.993,-1.83E-11,,
,4.995,-1.87E-11,,
,4.997,-2.03E-11,,
,4.999,-2.28E-11,,
,5.001,-2.54E-11,,
,5.003,-2.73E-11,,
,5.005,-2.83E-11,,
,5.007,-2.82E-11,,
,5.009,-2.75E-11,,
,5.011,-2.74E-11,,
,5.013,-2.87E-11,,
,5.015,-3.09E-11,,
,5.017,-3.36E-11,,
,5.019,-3.56E-11,,
,5.021,-3.65E-11,,
,5.023,-3.65E-11,,
,5.025,-3.58E-11,,
,5.027,-3.52E-11,,
,5.029,-3.52E-11,,
,5.031,-3.65E-11,,
,5.033,-3.84E-11,,
,5.035,-3.99E-11,,
,5.037,-4.03E-11,,
,5.039,-3.99E-11,,
,5.041,-3.87E-11,,
,5.043,-3.74E-11,,
,5.045,-3.64E-11,,
,5.047,-3.67E-11,,
,5.049,-3.82E-11,,
,5.051,-3.97E-11,,
,5.053,-4.06E-11,,
,5.055,-4.03E-11,,
,5.057,-3.92E-11,,
,5.059,-3.76E-11,,
,5.061,-3.64E-11,,
,5.063,-3.63E-11,,
,5.065,-3.75E-11,,
,5.067,-3.88E-11,,
,5.069,-3.95E-11,,
,5.071,-3.89E-11,,
,5.073,-3.78E-11,,
,5.075,-3.58E-11,,
,5.077,-3.39E-11,,
,5.079,-3.24E-11,,
,5.081,-3.26E-11,,
,5.083,-3.31E-11,,
,5.085,-3.36E-11,,
,5.087,-3.29E-11,,
,5.089,-3.13E-11,,
,5.091,-2.89E-11,,
,5.093,-2.68E-11,,
,5.095,-2.51E-11,,
,5.097,-2.46E-11,,
,5.099,-2.51E-11,,
,5.101,-2.58E-11,,
,5.103,-2.56E-11,,
,5.105,-2.43E-11,,
,5.107,-2.24E-11,,
,5.109,-2.03E-11,,
,5.111,-1.87E-11,,
,5.113,-1.82E-11,,
,5.115,-1.86E-11,,
,5.117,-1.92E-11,,
,5.119,-1.97E-11,,
,5.121,-1.92E-11,,
,5.123,-1.78E-11,,
,5.125,-1.58E-11,,
,5.127,-1.40E-11,,
,5.129,-1.31E-11,,
,5.131,-1.36E-11,,
,5.133,-1.47E-11,,
,5.135,-1.58E-11,,
,5.137,-1.61E-11,,
,5.139,-1.54E-11,,
,5.141,-1.38E-11,,
,5.143,-1.19E-11,,
,5.145,-1.09E-11,,
,5.147,-1.13E-11,,
,5.149,-1.25E-11,,
,5.151,-1.38E-11,,
,5.153,-1.43E-11,,
,5.155,-1.39E-11,,
,5.157,-1.26E-11,,
,5.159,-1.10E-11,,
,5.161,-9.69E-12,,
,5.163,-9.47E-12,,
,5.165,-1.04E-11,,
,5.167,-1.20E-11,,
,5.169,-1.32E-11,,
,5.171,-1.33E-11,,
,5.173,-1.23E-11,,
,5.175,-1.08E-11,,
,5.177,-9.26E-12,,
,5.179,-8.51E-12,,
,5.181,-8.83E-12,,
,5.183,-9.90E-12,,
,5.185,-1.10E-11,,
,5.187,-1.10E-11,,
,5.189,-1.01E-11,,
,5.191,-8.40E-12,,
,5.193,-6.68E-12,,
,5.195,-5.39E-12,,
,5.197,-5.72E-12,,
,5.199,-6.68E-12,,
,5.201,-7.86E-12,,
,5.203,-7.97E-12,,
,5.205,-7.11E-12,,
,5.207,-5.07E-12,,
,5.209,-2.71E-12,,
,5.211,-9.92E-13,,
,5.213,-6.69E-13,,
,5.215,-1.64E-12,,
,5.217,-3.03E-12,,
,5.219,-3.57E-12,,
,5.221,-3.14E-12,,
,5.223,-1.85E-12,,
,5.225,-1.33E-13,,
,5.227,1.37E-12,,
,5.229,2.34E-12,,
,5.231,1.91E-12,,
,5.233,9.41E-13,,
,5.235,8.20E-14,,
,5.237,8.20E-14,,
,5.239,1.37E-12,,
,5.241,3.20E-12,,
,5.243,5.34E-12,,
,5.245,6.74E-12,,
,5.247,7.17E-12,,
,5.249,6.20E-12,,
,5.251,5.13E-12,,
,5.253,4.38E-12,,
,5.255,4.81E-12,,
,5.257,5.99E-12,,
,5.259,7.49E-12,,
,5.261,8.56E-12,,
,5.263,8.13E-12,,
,5.265,6.85E-12,,
,5.267,5.13E-12,,
,5.269,4.16E-12,,
,5.271,3.73E-12,,
,5.273,4.59E-12,,
,5.275,6.09E-12,,
,5.277,8.03E-12,,
,5.279,8.56E-12,,
,5.281,7.92E-12,,
,5.283,6.20E-12,,
,5.285,4.91E-12,,
,5.287,4.27E-12,,
,5.289,4.59E-12,,
,5.291,5.66E-12,,
,5.293,7.06E-12,,
,5.295,7.92E-12,,
,5.297,7.27E-12,,
,5.299,6.09E-12,,
,5.301,4.59E-12,,
,5.303,4.27E-12,,
,5.305,4.48E-12,,
,5.307,5.88E-12,,
,5.309,7.70E-12,,
,5.311,9.10E-12,,
,5.313,9.42E-12,,
,5.315,8.24E-12,,
,5.317,6.85E-12,,
,5.319,5.77E-12,,
,5.321,5.56E-12,,
,5.323,6.42E-12,,
,5.325,7.92E-12,,
,5.327,9.74E-12,,
,5.329,1.01E-11,,
,5.331,9.10E-12,,
,5.333,7.06E-12,,
,5.335,5.66E-12,,
,5.337,5.24E-12,,
,5.339,5.99E-12,,
,5.341,7.38E-12,,
,5.343,8.89E-12,,
,5.345,9.42E-12,,
,5.347,8.78E-12,,
,5.349,6.95E-12,,
,5.351,5.34E-12,,
,5.353,4.48E-12,,
,5.355,4.70E-12,,
,5.357,5.66E-12,,
,5.359,6.95E-12,,
,5.361,8.03E-12,,
,5.363,7.92E-12,,
,5.365,6.74E-12,,
,5.367,5.24E-12,,
,5.369,4.38E-12,,
,5.371,4.38E-12,,
,5.373,5.34E-12,,
,5.375,6.85E-12,,
,5.377,8.46E-12,,
,5.379,9.21E-12,,
,5.381,8.67E-12,,
,5.383,7.27E-12,,
,5.385,5.99E-12,,
,5.387,5.77E-12,,
,5.389,6.42E-12,,
,5.391,7.70E-12,,
,5.393,9.10E-12,,
,5.395,9.96E-12,,
,5.397,9.64E-12,,
,5.399,8.35E-12,,
,5.401,6.74E-12,,
,5.403,6.09E-12,,
,5.405,6.52E-12,,
,5.407,7.81E-12,,
,5.409,9.64E-12,,
,5.411,1.08E-11,,
,5.413,1.14E-11,,
,5.415,1.04E-11,,
,5.417,8.99E-12,,
,5.419,8.03E-12,,
,5.421,8.03E-12,,
,5.423,8.99E-12,,
,5.425,1.03E-11,,
,5.427,1.17E-11,,
,5.429,1.22E-11,,
,5.431,1.15E-11,,
,5.433,9.96E-12,,
,5.435,8.67E-12,,
,5.437,8.56E-12,,
,5.439,9.42E-12,,
,5.441,1.09E-11,,
,5.443,1.26E-11,,
,5.445,1.36E-11,,
,5.447,1.36E-11,,
,5.449,1.25E-11,,
,5.451,1.12E-11,,
,5.453,1.07E-11,,
,5.455,1.11E-11,,
,5.457,1.22E-11,,
,5.459,1.37E-11,,
,5.461,1.48E-11,,
,5.463,1.51E-11,,
,5.465,1.40E-11,,
,5.467,1.25E-11,,
,5.469,1.17E-11,,
,5.471,1.19E-11,,
,5.473,1.31E-11,,
,5.475,1.49E-11,,
,5.477,1.67E-11,,
,5.479,1.78E-11,,
,5.481,1.69E-11,,
,5.483,1.52E-11,,
,5.485,1.36E-11,,
,5.487,1.33E-11,,
,5.489,1.37E-11,,
,5.491,1.49E-11,,
,5.493,1.60E-11,,
,5.495,1.69E-11,,
,5.497,1.66E-11,,
,5.499,1.56E-11,,
,5.501,1.44E-11,,
,5.503,1.37E-11,,
,5.505,1.40E-11,,
,5.507,1.55E-11,,
,5.509,1.73E-11,,
,5.511,1.89E-11,,
,5.513,1.90E-11,,
,5.515,1.81E-11,,
,5.517,1.64E-11,,
,5.519,1.50E-11,,
,5.521,1.46E-11,,
,5.523,1.52E-11,,
,5.525,1.67E-11,,
,5.527,1.79E-11,,
,5.529,1.82E-11,,
,5.531,1.73E-11,,
,5.533,1.58E-11,,
,5.535,1.43E-11,,
,5.537,1.36E-11,,
,5.539,1.41E-11,,
,5.541,1.55E-11,,
,5.543,1.73E-11,,
,5.545,1.79E-11,,
,5.547,1.72E-11,,
,5.549,1.54E-11,,
,5.551,1.35E-11,,
,5.553,1.26E-11,,
,5.555,1.23E-11,,
,5.557,1.32E-11,,
,5.559,1.44E-11,,
,5.561,1.54E-11,,
,5.563,1.53E-11,,
,5.565,1.38E-11,,
,5.567,1.20E-11,,
,5.569,1.08E-11,,
,5.571,1.07E-11,,
,5.573,1.17E-11,,
,5.575,1.30E-11,,
,5.577,1.46E-11,,
,5.579,1.50E-11,,
,5.581,1.43E-11,,
,5.583,1.24E-11,,
,5.585,1.07E-11,,
,5.587,9.74E-12,,
,5.589,9.64E-12,,
,5.591,1.04E-11,,
,5.593,1.15E-11,,
,5.595,1.20E-11,,
,5.597,1.14E-11,,
,5.599,9.64E-12,,
,5.601,7.70E-12,,
,5.603,6.52E-12,,
,5.605,6.74E-12,,
,5.607,7.70E-12,,
,5.609,9.10E-12,,
,5.611,9.96E-12,,
,5.613,9.96E-12,,
,5.615,8.56E-12,,
,5.617,6.52E-12,,
,5.619,4.91E-12,,
,5.621,4.48E-12,,
,5.623,4.91E-12,,
,5.625,5.99E-12,,
,5.627,6.85E-12,,
,5.629,7.27E-12,,
,5.631,6.42E-12,,
,5.633,5.13E-12,,
,5.635,4.05E-12,,
,5.637,4.05E-12,,
,5.639,4.91E-12,,
,5.641,6.63E-12,,
,5.643,8.78E-12,,
,5.645,1.03E-11,,
,5.647,1.03E-11,,
,5.649,9.10E-12,,
,5.651,7.60E-12,,
,5.653,7.17E-12,,
,5.655,7.49E-12,,
,5.657,8.78E-12,,
,5.659,1.01E-11,,
,5.661,1.10E-11,,
,5.663,1.09E-11,,
,5.665,9.74E-12,,
,5.667,8.24E-12,,
,5.669,7.06E-12,,
,5.671,7.27E-12,,
,5.673,8.13E-12,,
,5.675,9.85E-12,,
,5.677,1.10E-11,,
,5.679,1.18E-11,,
,5.681,1.12E-11,,
,5.683,9.74E-12,,
,5.685,8.46E-12,,
,5.687,8.03E-12,,
,5.689,8.78E-12,,
,5.691,1.01E-11,,
,5.693,1.14E-11,,
,5.695,1.21E-11,,
,5.697,1.16E-11,,
,5.699,1.03E-11,,
,5.701,8.78E-12,,
,5.703,8.03E-12,,
,5.705,8.13E-12,,
,5.707,9.42E-12,,
,5.709,1.09E-11,,
,5.711,1.22E-11,,
,5.713,1.21E-11,,
,5.715,1.10E-11,,
,5.717,9.31E-12,,
,5.719,8.13E-12,,
,5.721,7.70E-12,,
,5.723,8.46E-12,,
,5.725,9.64E-12,,
,5.727,1.09E-11,,
,5.729,1.12E-11,,
,5.731,1.04E-11,,
,5.733,8.67E-12,,
,5.735,7.17E-12,,
,5.737,6.31E-12,,
,5.739,6.85E-12,,
,5.741,7.92E-12,,
,5.743,9.53E-12,,
,5.745,1.02E-11,,
,5.747,9.85E-12,,
,5.749,8.56E-12,,
,5.751,7.27E-12,,
,5.753,6.42E-12,,
,5.755,6.52E-12,,
,5.757,7.49E-12,,
,5.759,9.21E-12,,
,5.761,1.03E-11,,
,5.763,1.03E-11,,
,5.765,8.99E-12,,
,5.767,7.49E-12,,
,5.769,6.31E-12,,
,5.771,6.09E-12,,
,5.773,6.85E-12,,
,5.775,8.56E-12,,
,5.777,1.01E-11,,
,5.779,1.08E-11,,
,5.781,9.96E-12,,
,5.783,8.46E-12,,
,5.785,7.06E-12,,
,5.787,6.85E-12,,
,5.789,7.49E-12,,
,5.791,8.99E-12,,
,5.793,1.03E-11,,
,5.795,1.11E-11,,
,5.797,1.05E-11,,
,5.799,9.31E-12,,
,5.801,7.70E-12,,
,5.803,6.95E-12,,
,5.805,6.85E-12,,
,5.807,7.81E-12,,
,5.809,9.10E-12,,
,5.811,1.03E-11,,
,5.813,1.04E-11,,
,5.815,9.31E-12,,
,5.817,7.70E-12,,
,5.819,6.74E-12,,
,5.821,6.52E-12,,
,5.823,7.17E-12,,
,5.825,8.13E-12,,
,5.827,9.31E-12,,
,5.829,9.74E-12,,
,5.831,9.10E-12,,
,5.833,7.81E-12,,
,5.835,6.42E-12,,
,5.837,5.56E-12,,
,5.839,5.77E-12,,
,5.841,6.85E-12,,
,5.843,8.24E-12,,
,5.845,9.21E-12,,
,5.847,8.89E-12,,
,5.849,7.70E-12,,
,5.851,6.09E-12,,
,5.853,5.24E-12,,
,5.855,5.34E-12,,
,5.857,6.20E-12,,
,5.859,7.60E-12,,
,5.861,8.67E-12,,
,5.863,8.78E-12,,
,5.865,7.60E-12,,
,5.867,6.20E-12,,
,5.869,5.02E-12,,
,5.871,5.13E-12,,
,5.873,6.20E-12,,
,5.875,8.03E-12,,
,5.877,9.64E-12,,
,5.879,1.04E-11,,
,5.881,9.85E-12,,
,5.883,8.35E-12,,
,5.885,6.74E-12,,
,5.887,5.99E-12,,
,5.889,5.99E-12,,
,5.891,6.85E-12,,
,5.893,8.03E-12,,
,5.895,8.67E-12,,
,5.897,8.03E-12,,
,5.899,6.52E-12,,
,5.901,5.13E-12,,
,5.903,4.27E-12,,
,5.905,4.05E-12,,
,5.907,4.91E-12,,
,5.909,6.52E-12,,
,5.911,7.81E-12,,
,5.913,8.13E-12,,
,5.915,6.95E-12,,
,5.917,5.24E-12,,
,5.919,3.52E-12,,
,5.921,2.87E-12,,
,5.923,3.41E-12,,
,5.925,4.59E-12,,
,5.927,5.88E-12,,
,5.929,6.20E-12,,
,5.931,5.45E-12,,
,5.933,3.73E-12,,
,5.935,2.34E-12,,
,5.937,1.91E-12,,
,5.939,2.23E-12,,
,5.941,3.30E-12,,
,5.943,4.48E-12,,
,5.945,5.45E-12,,
,5.947,5.13E-12,,
,5.949,3.73E-12,,
,5.951,1.91E-12,,
,5.953,7.26E-13,,
,5.955,5.11E-13,,
,5.957,1.48E-12,,
,5.959,2.77E-12,,
,5.961,3.62E-12,,
,5.963,3.41E-12,,
,5.965,2.01E-12,,
,5.967,2.97E-13,,
,5.969,-9.92E-13,,
,5.971,-1.10E-12,,
,5.973,-3.47E-13,,
,5.975,1.05E-12,,
,5.977,2.55E-12,,
,5.979,3.20E-12,,
,5.981,2.23E-12,,
,5.983,2.97E-13,,
,5.985,-1.64E-12,,
,5.987,-2.49E-12,,
,5.989,-2.39E-12,,
,5.991,-1.21E-12,,
,5.993,-2.53E-14,,
,5.995,7.26E-13,,
,5.997,8.20E-14,,
,5.999,-1.10E-12,,
,6.001,-2.49E-12,,
,6.003,-3.35E-12,,
,6.005,-3.25E-12,,
,6.007,-2.39E-12,,
,6.009,-5.62E-13,,
,6.011,5.11E-13,,
,6.013,7.26E-13,,
,6.015,-4.55E-13,,
,6.017,-1.96E-12,,
,6.019,-3.25E-12,,
,6.021,-3.35E-12,,
,6.023,-2.49E-12,,
,6.025,-8.84E-13,,
,6.027,2.97E-13,,
,6.029,9.41E-13,,
,6.031,8.20E-14,,
,6.033,-1.31E-12,,
,6.035,-2.60E-12,,
,6.037,-2.92E-12,,
,6.039,-1.96E-12,,
,6.041,-3.47E-13,,
,6.043,1.80E-12,,
,6.045,3.09E-12,,
,6.047,3.20E-12,,
,6.049,2.12E-12,,
,6.051,8.34E-13,,
,6.053,8.20E-14,,
,6.055,4.04E-13,,
,6.057,1.48E-12,,
,6.059,3.20E-12,,
,6.061,4.70E-12,,
,6.063,5.13E-12,,
,6.065,4.16E-12,,
,6.067,2.66E-12,,
,6.069,1.69E-12,,
,6.071,1.80E-12,,
,6.073,2.87E-12,,
,6.075,4.70E-12,,
,6.077,6.42E-12,,
,6.079,7.49E-12,,
,6.081,7.06E-12,,
,6.083,5.99E-12,,
,6.085,4.59E-12,,
,6.087,4.16E-12,,
,6.089,4.70E-12,,
,6.091,5.99E-12,,
,6.093,7.49E-12,,
,6.095,8.46E-12,,
,6.097,8.03E-12,,
,6.099,6.63E-12,,
,6.101,5.02E-12,,
,6.103,4.27E-12,,
,6.105,4.59E-12,,
,6.107,5.99E-12,,
,6.109,7.92E-12,,
,6.111,9.42E-12,,
,6.113,9.64E-12,,
,6.115,8.56E-12,,
,6.117,6.95E-12,,
,6.119,5.77E-12,,
,6.121,5.56E-12,,
,6.123,5.99E-12,,
,6.125,7.06E-12,,
,6.127,8.03E-12,,
,6.129,8.46E-12,,
,6.131,7.49E-12,,
,6.133,5.77E-12,,
,6.135,4.27E-12,,
,6.137,3.62E-12,,
,6.139,3.73E-12,,
,6.141,4.59E-12,,
,6.143,5.66E-12,,
,6.145,6.42E-12,,
,6.147,5.88E-12,,
,6.149,3.95E-12,,
,6.151,2.01E-12,,
,6.153,5.11E-13,,
,6.155,8.20E-14,,
,6.157,6.19E-13,,
,6.159,1.48E-12,,
,6.161,2.23E-12,,
,6.163,1.80E-12,,
,6.165,5.11E-13,,
,6.167,-1.42E-12,,
,6.169,-3.03E-12,,
,6.171,-3.78E-12,,
,6.173,-3.25E-12,,
,6.175,-2.07E-12,,
,6.177,-7.77E-13,,
,6.179,-4.55E-13,,
,6.181,-1.42E-12,,
,6.183,-3.25E-12,,
,6.185,-5.07E-12,,
,6.187,-5.93E-12,,
,6.189,-6.04E-12,,
,6.191,-5.29E-12,,
,6.193,-4.53E-12,,
,6.195,-4.43E-12,,
,6.197,-5.39E-12,,
,6.199,-7.33E-12,,
,6.201,-9.26E-12,,
,6.203,-1.08E-11,,
,6.205,-1.16E-11,,
,6.207,-1.15E-11,,
,6.209,-1.09E-11,,
,6.211,-1.01E-11,,
,6.213,-1.07E-11,,
,6.215,-1.25E-11,,
,6.217,-1.49E-11,,
,6.219,-1.69E-11,,
,6.221,-1.78E-11,,
,6.223,-1.80E-11,,
,6.225,-1.76E-11,,
,6.227,-1.74E-11,,
,6.229,-1.77E-11,,
,6.231,-1.92E-11,,
,6.233,-2.16E-11,,
,6.235,-2.41E-11,,
,6.237,-2.58E-11,,
,6.239,-2.60E-11,,
,6.241,-2.56E-11,,
,6.243,-2.48E-11,,
,6.245,-2.48E-11,,
,6.247,-2.59E-11,,
,6.249,-2.77E-11,,
,6.251,-2.99E-11,,
,6.253,-3.13E-11,,
,6.255,-3.17E-11,,
,6.257,-3.14E-11,,
,6.259,-3.06E-11,,
,6.261,-3.04E-11,,
,6.263,-3.14E-11,,
,6.265,-3.36E-11,,
,6.267,-3.61E-11,,
,6.269,-3.80E-11,,
,6.271,-3.89E-11,,
,6.273,-3.88E-11,,
,6.275,-3.80E-11,,
,6.277,-3.72E-11,,
,6.279,-3.73E-11,,
,6.281,-3.84E-11,,
,6.283,-4.04E-11,,
,6.285,-4.22E-11,,
,6.287,-4.32E-11,,
,6.289,-4.30E-11,,
,6.291,-4.21E-11,,
,6.293,-4.09E-11,,
,6.295,-4.03E-11,,
,6.297,-4.08E-11,,
,6.299,-4.24E-11,,
,6.301,-4.41E-11,,
,6.303,-4.50E-11,,
,6.305,-4.46E-11,,
,6.307,-4.35E-11,,
,6.309,-4.18E-11,,
,6.311,-4.05E-11,,
,6.313,-4.00E-11,,
,6.315,-4.07E-11,,
,6.317,-4.22E-11,,
,6.319,-4.34E-11,,
,6.321,-4.36E-11,,
,6.323,-4.25E-11,,
,6.325,-4.09E-11,,
,6.327,-3.95E-11,,
,6.329,-3.90E-11,,
,6.331,-3.96E-11,,
,6.333,-4.10E-11,,
,6.335,-4.23E-11,,
,6.337,-4.28E-11,,
,6.339,-4.19E-11,,
,6.341,-4.01E-11,,
,6.343,-3.79E-11,,
,6.345,-3.63E-11,,
,6.347,-3.63E-11,,
,6.349,-3.74E-11,,
,6.351,-3.88E-11,,
,6.353,-3.93E-11,,
,6.355,-3.89E-11,,
,6.357,-3.74E-11,,
,6.359,-3.57E-11,,
,6.361,-3.42E-11,,
,6.363,-3.38E-11,,
,6.365,-3.45E-11,,
,6.367,-3.55E-11,,
,6.369,-3.61E-11,,
,6.371,-3.58E-11,,
,6.373,-3.47E-11,,
,6.375,-3.24E-11,,
,6.377,-3.00E-11,,
,6.379,-2.84E-11,,
,6.381,-2.84E-11,,
,6.383,-2.94E-11,,
,6.385,-3.01E-11,,
,6.387,-3.03E-11,,
,6.389,-2.97E-11,,
,6.391,-2.84E-11,,
,6.393,-2.65E-11,,
,6.395,-2.53E-11,,
,6.397,-2.53E-11,,
,6.399,-2.63E-11,,
,6.401,-2.75E-11,,
,6.403,-2.78E-11,,
,6.405,-2.71E-11,,
,6.407,-2.54E-11,,
,6.409,-2.32E-11,,
,6.411,-2.14E-11,,
,6.413,-2.05E-11,,
,6.415,-2.11E-11,,
,6.417,-2.21E-11,,
,6.419,-2.31E-11,,
,6.421,-2.32E-11,,
,6.423,-2.22E-11,,
,6.425,-2.07E-11,,
,6.427,-1.91E-11,,
,6.429,-1.87E-11,,
,6.431,-1.93E-11,,
,6.433,-2.09E-11,,
,6.435,-2.20E-11,,
,6.437,-2.20E-11,,
,6.439,-2.10E-11,,
,6.441,-1.89E-11,,
,6.443,-1.70E-11,,
,6.445,-1.56E-11,,
,6.447,-1.57E-11,,
,6.449,-1.68E-11,,
,6.451,-1.82E-11,,
,6.453,-1.88E-11,,
,6.455,-1.83E-11,,
,6.457,-1.70E-11,,
,6.459,-1.54E-11,,
,6.461,-1.43E-11,,
,6.463,-1.41E-11,,
,6.465,-1.51E-11,,
,6.467,-1.62E-11,,
,6.469,-1.73E-11,,
,6.471,-1.71E-11,,
,6.473,-1.60E-11,,
,6.475,-1.41E-11,,
,6.477,-1.23E-11,,
,6.479,-1.14E-11,,
,6.481,-1.15E-11,,
,6.483,-1.27E-11,,
,6.485,-1.37E-11,,
,6.487,-1.39E-11,,
,6.489,-1.31E-11,,
,6.491,-1.16E-11,,
,6.493,-1.03E-11,,
,6.495,-9.37E-12,,
,6.497,-9.69E-12,,
,6.499,-1.09E-11,,
,6.501,-1.24E-11,,
,6.503,-1.29E-11,,
,6.505,-1.25E-11,,
,6.507,-1.10E-11,,
,6.509,-9.47E-12,,
,6.511,-7.75E-12,,
,6.513,-7.22E-12,,
,6.515,-7.75E-12,,
,6.517,-9.58E-12,,
,6.519,-1.10E-11,,
,6.521,-1.16E-11,,
,6.523,-1.09E-11,,
,6.525,-9.69E-12,,
,6.527,-8.40E-12,,
,6.529,-8.40E-12,,
,6.531,-9.58E-12,,
,6.533,-1.15E-11,,
,6.535,-1.30E-11,,
,6.537,-1.38E-11,,
,6.539,-1.37E-11,,
,6.541,-1.30E-11,,
,6.543,-1.18E-11,,
,6.545,-1.13E-11,,
,6.547,-1.17E-11,,
,6.549,-1.36E-11,,
,6.551,-1.53E-11,,
,6.553,-1.69E-11,,
,6.555,-1.72E-11,,
,6.557,-1.69E-11,,
,6.559,-1.58E-11,,
,6.561,-1.52E-11,,
,6.563,-1.55E-11,,
,6.565,-1.69E-11,,
,6.567,-1.88E-11,,
,6.569,-2.03E-11,,
,6.571,-2.09E-11,,
,6.573,-2.03E-11,,
,6.575,-1.95E-11,,
,6.577,-1.85E-11,,
,6.579,-1.85E-11,,
,6.581,-1.95E-11,,
,6.583,-2.13E-11,,
,6.585,-2.30E-11,,
,6.587,-2.43E-11,,
,6.589,-2.46E-11,,
,6.591,-2.42E-11,,
,6.593,-2.31E-11,,
,6.595,-2.26E-11,,
,6.597,-2.31E-11,,
,6.599,-2.49E-11,,
,6.601,-2.69E-11,,
,6.603,-2.82E-11,,
,6.605,-2.80E-11,,
,6.607,-2.74E-11,,
,6.609,-2.60E-11,,
,6.611,-2.50E-11,,
,6.613,-2.46E-11,,
,6.615,-2.59E-11,,
,6.617,-2.75E-11,,
,6.619,-2.90E-11,,
,6.621,-2.93E-11,,
,6.623,-2.89E-11,,
,6.625,-2.77E-11,,
,6.627,-2.66E-11,,
,6.629,-2.65E-11,,
,6.631,-2.75E-11,,
,6.633,-2.91E-11,,
,6.635,-3.07E-11,,
,6.637,-3.16E-11,,
,6.639,-3.14E-11,,
,6.641,-2.99E-11,,
,6.643,-2.82E-11,,
,6.645,-2.69E-11,,
,6.647,-2.72E-11,,
,6.649,-2.85E-11,,
,6.651,-3.01E-11,,
,6.653,-3.09E-11,,
,6.655,-3.07E-11,,
,6.657,-3.00E-11,,
,6.659,-2.85E-11,,
,6.661,-2.75E-11,,
,6.663,-2.74E-11,,
,6.665,-2.85E-11,,
,6.667,-2.99E-11,,
,6.669,-3.07E-11,,
,6.671,-3.07E-11,,
,6.673,-2.98E-11,,
,6.675,-2.80E-11,,
,6.677,-2.65E-11,,
,6.679,-2.57E-11,,
,6.681,-2.61E-11,,
,6.683,-2.72E-11,,
,6.685,-2.83E-11,,
,6.687,-2.85E-11,,
,6.689,-2.78E-11,,
,6.691,-2.65E-11,,
,6.693,-2.53E-11,,
,6.695,-2.42E-11,,
,6.697,-2.42E-11,,
,6.699,-2.51E-11,,
,6.701,-2.68E-11,,
,6.703,-2.78E-11,,
,6.705,-2.78E-11,,
,6.707,-2.64E-11,,
,6.709,-2.46E-11,,
,6.711,-2.29E-11,,
,6.713,-2.25E-11,,
,6.715,-2.31E-11,,
,6.717,-2.44E-11,,
,6.719,-2.54E-11,,
,6.721,-2.54E-11,,
,6.723,-2.44E-11,,
,6.725,-2.26E-11,,
,6.727,-2.12E-11,,
,6.729,-2.07E-11,,
,6.731,-2.18E-11,,
,6.733,-2.32E-11,,
,6.735,-2.46E-11,,
,6.737,-2.50E-11,,
,6.739,-2.45E-11,,
,6.741,-2.30E-11,,
,6.743,-2.13E-11,,
,6.745,-2.03E-11,,
,6.747,-2.04E-11,,
,6.749,-2.14E-11,,
,6.751,-2.27E-11,,
,6.753,-2.34E-11,,
,6.755,-2.34E-11,,
,6.757,-2.26E-11,,
,6.759,-2.14E-11,,
,6.761,-2.03E-11,,
,6.763,-2.02E-11,,
,6.765,-2.12E-11,,
,6.767,-2.26E-11,,
,6.769,-2.38E-11,,
,6.771,-2.38E-11,,
,6.773,-2.30E-11,,
,6.775,-2.15E-11,,
,6.777,-2.00E-11,,
,6.779,-1.95E-11,,
,6.781,-2.00E-11,,
,6.783,-2.15E-11,,
,6.785,-2.27E-11,,
,6.787,-2.30E-11,,
,6.789,-2.26E-11,,
,6.791,-2.15E-11,,
,6.793,-2.01E-11,,
,6.795,-1.91E-11,,
,6.797,-1.90E-11,,
,6.799,-2.02E-11,,
,6.801,-2.15E-11,,
,6.803,-2.24E-11,,
,6.805,-2.20E-11,,
,6.807,-2.09E-11,,
,6.809,-1.92E-11,,
,6.811,-1.78E-11,,
,6.813,-1.74E-11,,
,6.815,-1.81E-11,,
,6.817,-1.95E-11,,
,6.819,-2.06E-11,,
,6.821,-2.10E-11,,
,6.823,-2.02E-11,,
,6.825,-1.87E-11,,
,6.827,-1.71E-11,,
,6.829,-1.63E-11,,
,6.831,-1.66E-11,,
,6.833,-1.80E-11,,
,6.835,-1.91E-11,,
,6.837,-1.95E-11,,
,6.839,-1.87E-11,,
,6.841,-1.72E-11,,
,6.843,-1.55E-11,,
,6.845,-1.41E-11,,
,6.847,-1.38E-11,,
,6.849,-1.49E-11,,
,6.851,-1.63E-11,,
,6.853,-1.72E-11,,
,6.855,-1.70E-11,,
,6.857,-1.60E-11,,
,6.859,-1.43E-11,,
,6.861,-1.29E-11,,
,6.863,-1.22E-11,,
,6.865,-1.29E-11,,
,6.867,-1.38E-11,,
,6.869,-1.46E-11,,
,6.871,-1.43E-11,,
,6.873,-1.32E-11,,
,6.875,-1.15E-11,,
,6.877,-9.90E-12,,
,6.879,-9.04E-12,,
,6.881,-9.26E-12,,
,6.883,-1.03E-11,,
,6.885,-1.15E-11,,
,6.887,-1.18E-11,,
,6.889,-1.11E-11,,
,6.891,-9.58E-12,,
,6.893,-7.97E-12,,
,6.895,-6.90E-12,,
,6.897,-7.11E-12,,
,6.899,-8.18E-12,,
,6.901,-9.69E-12,,
,6.903,-1.01E-11,,
,6.905,-9.69E-12,,
,6.907,-8.29E-12,,
,6.909,-6.57E-12,,
,6.911,-4.75E-12,,
,6.913,-3.89E-12,,
,6.915,-4.53E-12,,
,6.917,-5.93E-12,,
,6.919,-7.00E-12,,
,6.921,-7.00E-12,,
,6.923,-6.57E-12,,
,6.925,-5.61E-12,,
,6.927,-4.32E-12,,
,6.929,-3.57E-12,,
,6.931,-4.10E-12,,
,6.933,-5.93E-12,,
,6.935,-7.33E-12,,
,6.937,-7.75E-12,,
,6.939,-6.68E-12,,
,6.941,-5.07E-12,,
,6.943,-3.25E-12,,
,6.945,-2.17E-12,,
,6.947,-2.07E-12,,
,6.949,-2.92E-12,,
,6.951,-4.21E-12,,
,6.953,-4.96E-12,,
,6.955,-4.86E-12,,
,6.957,-3.46E-12,,
,6.959,-1.85E-12,,
,6.961,-4.55E-13,,
,6.963,-3.47E-13,,
,6.965,-1.10E-12,,
,6.967,-2.39E-12,,
,6.969,-3.25E-12,,
,6.971,-3.25E-12,,
,6.973,-2.28E-12,,
,6.975,-4.55E-13,,
,6.977,1.37E-12,,
,6.979,2.55E-12,,
,6.981,2.34E-12,,
,6.983,1.05E-12,,
,6.985,8.20E-14,,
,6.987,-3.47E-13,,
,6.989,1.89E-13,,
,6.991,1.26E-12,,
,6.993,2.87E-12,,
,6.995,4.27E-12,,
,6.997,4.16E-12,,
,6.999,2.98E-12,,
,7.001,1.37E-12,,
,7.003,6.19E-13,,
,7.005,8.34E-13,,
,7.007,2.01E-12,,
,7.009,3.52E-12,,
,7.011,4.81E-12,,
,7.013,5.02E-12,,
,7.015,4.27E-12,,
,7.017,2.77E-12,,
,7.019,1.69E-12,,
,7.021,1.48E-12,,
,7.023,2.01E-12,,
,7.025,3.30E-12,,
,7.027,4.70E-12,,
,7.029,5.45E-12,,
,7.031,4.70E-12,,
,7.033,2.77E-12,,
,7.035,1.26E-12,,
,7.037,4.04E-13,,
,7.039,8.34E-13,,
,7.041,1.91E-12,,
,7.043,3.41E-12,,
,7.045,4.27E-12,,
,7.047,3.73E-12,,
,7.049,2.44E-12,,
,7.051,1.05E-12,,
,7.053,2.97E-13,,
,7.055,1.89E-13,,
,7.057,9.41E-13,,
,7.059,2.23E-12,,
,7.061,3.30E-12,,
,7.063,3.09E-12,,
,7.065,1.80E-12,,
,7.067,-2.53E-14,,
,7.069,-1.42E-12,,
,7.071,-1.85E-12,,
,7.073,-1.31E-12,,
,7.075,-2.53E-14,,
,7.077,1.05E-12,,
,7.079,1.37E-12,,
,7.081,6.19E-13,,
,7.083,-7.77E-13,,
,7.085,-2.28E-12,,
,7.087,-3.14E-12,,
,7.089,-3.03E-12,,
,7.091,-1.96E-12,,
,7.093,-6.69E-13,,
,7.095,-1.33E-13,,
,7.097,-5.62E-13,,
,7.099,-2.07E-12,,
,7.101,-3.89E-12,,
,7.103,-5.18E-12,,
,7.105,-5.39E-12,,
,7.107,-4.32E-12,,
,7.109,-2.92E-12,,
,7.111,-1.74E-12,,
,7.113,-1.64E-12,,
,7.115,-2.71E-12,,
,7.117,-4.43E-12,,
,7.119,-5.93E-12,,
,7.121,-6.47E-12,,
,7.123,-6.14E-12,,
,7.125,-5.18E-12,,
,7.127,-4.32E-12,,
,7.129,-4.00E-12,,
,7.131,-4.75E-12,,
,7.133,-6.36E-12,,
,7.135,-7.86E-12,,
,7.137,-8.51E-12,,
,7.139,-7.97E-12,,
,7.141,-6.79E-12,,
,7.143,-5.18E-12,,
,7.145,-4.21E-12,,
,7.147,-4.43E-12,,
,7.149,-5.82E-12,,
,7.151,-7.43E-12,,
,7.153,-8.29E-12,,
,7.155,-8.29E-12,,
,7.157,-7.22E-12,,
,7.159,-5.61E-12,,
,7.161,-4.21E-12,,
,7.163,-3.78E-12,,
,7.165,-4.64E-12,,
,7.167,-5.93E-12,,
,7.169,-6.79E-12,,
,7.171,-7.00E-12,,
,7.173,-6.14E-12,,
,7.175,-4.64E-12,,
,7.177,-2.82E-12,,
,7.179,-1.74E-12,,
,7.181,-1.96E-12,,
,7.183,-3.14E-12,,
,7.185,-4.43E-12,,
,7.187,-5.18E-12,,
,7.189,-4.96E-12,,
,7.191,-4.00E-12,,
,7.193,-2.82E-12,,
,7.195,-1.85E-12,,
,7.197,-2.39E-12,,
,7.199,-3.68E-12,,
,7.201,-5.18E-12,,
,7.203,-5.82E-12,,
,7.205,-5.39E-12,,
,7.207,-4.43E-12,,
,7.209,-2.92E-12,,
,7.211,-1.64E-12,,
,7.213,-1.21E-12,,
,7.215,-1.85E-12,,
,7.217,-3.25E-12,,
,7.219,-4.43E-12,,
,7.221,-4.75E-12,,
,7.223,-4.10E-12,,
,7.225,-2.39E-12,,
,7.227,-6.69E-13,,
,7.229,2.97E-13,,
,7.231,-2.40E-13,,
,7.233,-1.53E-12,,
,7.235,-2.71E-12,,
,7.237,-3.03E-12,,
,7.239,-2.39E-12,,
,7.241,-6.69E-13,,
,7.243,1.37E-12,,
,7.245,2.87E-12,,
,7.247,2.98E-12,,
,7.249,2.34E-12,,
,7.251,1.16E-12,,
,7.253,7.26E-13,,
,7.255,8.34E-13,,
,7.257,2.01E-12,,
,7.259,3.84E-12,,
,7.261,5.34E-12,,
,7.263,6.09E-12,,
,7.265,5.13E-12,,
,7.267,3.73E-12,,
,7.269,2.77E-12,,
,7.271,2.66E-12,,
,7.273,3.62E-12,,
,7.275,5.13E-12,,
,7.277,6.95E-12,,
,7.279,7.92E-12,,
,7.281,7.49E-12,,
,7.283,6.20E-12,,
,7.285,5.24E-12,,
,7.287,4.91E-12,,
,7.289,5.56E-12,,
,7.291,6.85E-12,,
,7.293,8.56E-12,,
,7.295,9.85E-12,,
,7.297,9.74E-12,,
,7.299,8.56E-12,,
,7.301,7.06E-12,,
,7.303,6.31E-12,,
,7.305,6.63E-12,,
,7.307,7.70E-12,,
,7.309,9.42E-12,,
,7.311,1.08E-11,,
,7.313,1.12E-11,,
,7.315,1.05E-11,,
,7.317,9.21E-12,,
,7.319,8.35E-12,,
,7.321,8.35E-12,,
,7.323,9.21E-12,,
,7.325,1.06E-11,,
,7.327,1.19E-11,,
,7.329,1.25E-11,,
,7.331,1.20E-11,,
,7.333,1.07E-11,,
,7.335,9.31E-12,,
,7.337,8.99E-12,,
,7.339,9.64E-12,,
,7.341,1.12E-11,,
,7.343,1.30E-11,,
,7.345,1.41E-11,,
,7.347,1.43E-11,,
,7.349,1.30E-11,,
,7.351,1.16E-11,,
,7.353,1.06E-11,,
,7.355,1.09E-11,,
,7.357,1.18E-11,,
,7.359,1.32E-11,,
,7.361,1.43E-11,,
,7.363,1.43E-11,,
,7.365,1.31E-11,,
,7.367,1.11E-11,,
,7.369,9.64E-12,,
,7.371,9.10E-12,,
,7.373,9.53E-12,,
,7.375,1.08E-11,,
,7.377,1.20E-11,,
,7.379,1.25E-11,,
,7.381,1.21E-11,,
,7.383,1.07E-11,,
,7.385,9.64E-12,,
,7.387,8.89E-12,,
,7.389,9.10E-12,,
,7.391,9.74E-12,,
,7.393,1.06E-11,,
,7.395,1.11E-11,,
,7.397,1.07E-11,,
,7.399,9.31E-12,,
,7.401,7.70E-12,,
,7.403,6.63E-12,,
,7.405,6.74E-12,,
,7.407,7.70E-12,,
,7.409,9.10E-12,,
,7.411,1.02E-11,,
,7.413,1.03E-11,,
,7.415,9.10E-12,,
,7.417,7.38E-12,,
,7.419,5.88E-12,,
,7.421,5.45E-12,,
,7.423,5.88E-12,,
,7.425,6.95E-12,,
,7.427,8.24E-12,,
,7.429,8.67E-12,,
,7.431,8.24E-12,,
,7.433,6.63E-12,,
,7.435,5.02E-12,,
,7.437,4.16E-12,,
,7.439,4.48E-12,,
,7.441,5.88E-12,,
,7.443,7.27E-12,,
,7.445,8.13E-12,,
,7.447,7.81E-12,,
,7.449,6.31E-12,,
,7.451,4.59E-12,,
,7.453,3.62E-12,,
,7.455,3.62E-12,,
,7.457,4.48E-12,,
,7.459,5.77E-12,,
,7.461,6.74E-12,,
,7.463,6.95E-12,,
,7.465,5.88E-12,,
,7.467,4.48E-12,,
,7.469,3.09E-12,,
,7.471,2.77E-12,,
,7.473,3.41E-12,,
,7.475,4.91E-12,,
,7.477,6.20E-12,,
,7.479,6.95E-12,,
,7.481,6.20E-12,,
,7.483,4.70E-12,,
,7.485,3.20E-12,,
,7.487,2.77E-12,,
,7.489,3.30E-12,,
,7.491,4.38E-12,,
,7.493,5.56E-12,,
,7.495,6.52E-12,,
,7.497,6.42E-12,,
,7.499,5.24E-12,,
,7.501,3.52E-12,,
,7.503,2.34E-12,,
,7.505,2.34E-12,,
,7.507,3.30E-12,,
,7.509,5.02E-12,,
,7.511,6.52E-12,,
,7.513,7.06E-12,,
,7.515,6.09E-12,,
,7.517,4.70E-12,,
,7.519,3.30E-12,,
,7.521,2.98E-12,,
,7.523,3.41E-12,,
,7.525,4.81E-12,,
,7.527,5.99E-12,,
,7.529,6.31E-12,,
,7.531,5.24E-12,,
,7.533,3.84E-12,,
,7.535,2.12E-12,,
,7.537,1.48E-12,,
,7.539,1.80E-12,,
,7.541,3.30E-12,,
,7.543,4.81E-12,,
,7.545,5.88E-12,,
,7.547,5.77E-12,,
,7.549,4.59E-12,,
,7.551,2.77E-12,,
,7.553,1.69E-12,,
,7.555,1.69E-12,,
,7.557,2.66E-12,,
,7.559,3.95E-12,,
,7.561,5.13E-12,,
,7.563,5.24E-12,,
,7.565,4.16E-12,,
,7.567,2.44E-12,,
,7.569,1.26E-12,,
,7.571,1.16E-12,,
,7.573,1.80E-12,,
,7.575,3.20E-12,,
,7.577,4.59E-12,,
,7.579,5.56E-12,,
,7.581,5.24E-12,,
,7.583,4.05E-12,,
,7.585,2.66E-12,,
,7.587,2.01E-12,,
,7.589,2.34E-12,,
,7.591,3.41E-12,,
,7.593,4.81E-12,,
,7.595,5.66E-12,,
,7.597,5.56E-12,,
,7.599,4.38E-12,,
,7.601,3.09E-12,,
,7.603,2.44E-12,,
,7.605,2.55E-12,,
,7.607,3.41E-12,,
,7.609,4.81E-12,,
,7.611,6.20E-12,,
,7.613,6.74E-12,,
,7.615,5.88E-12,,
,7.617,4.38E-12,,
,7.619,3.41E-12,,
,7.621,3.30E-12,,
,7.623,4.27E-12,,
,7.625,5.34E-12,,
,7.627,6.63E-12,,
,7.629,7.06E-12,,
,7.631,6.74E-12,,
,7.633,5.24E-12,,
,7.635,3.95E-12,,
,7.637,3.09E-12,,
,7.639,3.62E-12,,
,7.641,4.81E-12,,
,7.643,6.52E-12,,
,7.645,7.81E-12,,
,7.647,7.92E-12,,
,7.649,6.85E-12,,
,7.651,5.34E-12,,
,7.653,4.27E-12,,
,7.655,4.16E-12,,
,7.657,4.81E-12,,
,7.659,5.99E-12,,
,7.661,7.06E-12,,
,7.663,7.17E-12,,
,7.665,6.09E-12,,
,7.667,4.70E-12,,
,7.669,3.52E-12,,
,7.671,3.52E-12,,
,7.673,4.38E-12,,
,7.675,5.99E-12,,
,7.677,7.81E-12,,
,7.679,8.35E-12,,
,7.681,8.03E-12,,
,7.683,6.42E-12,,
,7.685,5.13E-12,,
,7.687,4.48E-12,,
,7.689,4.70E-12,,
,7.691,5.66E-12,,
,7.693,6.95E-12,,
,7.695,7.70E-12,,
,7.697,7.49E-12,,
,7.699,6.09E-12,,
,7.701,4.59E-12,,
,7.703,3.62E-12,,
,7.705,3.73E-12,,
,7.707,4.70E-12,,
,7.709,6.09E-12,,
,7.711,7.17E-12,,
,7.713,7.49E-12,,
,7.715,6.74E-12,,
,7.717,5.45E-12,,
,7.719,4.38E-12,,
,7.721,4.27E-12,,
,7.723,4.91E-12,,
,7.725,6.20E-12,,
,7.727,7.38E-12,,
,7.729,7.81E-12,,
,7.731,7.06E-12,,
,7.733,5.34E-12,,
,7.735,3.95E-12,,
,7.737,3.20E-12,,
,7.739,3.73E-12,,
,7.741,4.91E-12,,
,7.743,6.42E-12,,
,7.745,7.27E-12,,
,7.747,7.06E-12,,
,7.749,5.77E-12,,
,7.751,4.05E-12,,
,7.753,3.09E-12,,
,7.755,3.30E-12,,
,7.757,4.48E-12,,
,7.759,6.20E-12,,
,7.761,7.70E-12,,
,7.763,8.03E-12,,
,7.765,6.95E-12,,
,7.767,5.13E-12,,
,7.769,3.84E-12,,
,7.771,3.41E-12,,
,7.773,4.27E-12,,
,7.775,5.88E-12,,
,7.777,7.70E-12,,
,7.779,8.35E-12,,
,7.781,8.24E-12,,
,7.783,7.06E-12,,
,7.785,5.99E-12,,
,7.787,5.13E-12,,
,7.789,5.45E-12,,
,7.791,6.52E-12,,
,7.793,8.24E-12,,
,7.795,9.31E-12,,
,7.797,9.42E-12,,
,7.799,8.13E-12,,
,7.801,6.42E-12,,
,7.803,5.24E-12,,
,7.805,5.34E-12,,
,7.807,6.63E-12,,
,7.809,8.46E-12,,
,7.811,9.96E-12,,
,7.813,1.05E-11,,
,7.815,9.85E-12,,
,7.817,8.56E-12,,
,7.819,7.49E-12,,
,7.821,7.49E-12,,
,7.823,8.24E-12,,
,7.825,9.74E-12,,
,7.827,1.14E-11,,
,7.829,1.22E-11,,
,7.831,1.19E-11,,
,7.833,1.06E-11,,
,7.835,9.31E-12,,
,7.837,8.67E-12,,
,7.839,9.21E-12,,
,7.841,1.09E-11,,
,7.843,1.29E-11,,
,7.845,1.43E-11,,
,7.847,1.44E-11,,
,7.849,1.35E-11,,
,7.851,1.22E-11,,
,7.853,1.16E-11,,
,7.855,1.21E-11,,
,7.857,1.33E-11,,
,7.859,1.50E-11,,
,7.861,1.64E-11,,
,7.863,1.69E-11,,
,7.865,1.60E-11,,
,7.867,1.46E-11,,
,7.869,1.36E-11,,
,7.871,1.37E-11,,
,7.873,1.47E-11,,
,7.875,1.64E-11,,
,7.877,1.83E-11,,
,7.879,1.93E-11,,
,7.881,1.92E-11,,
,7.883,1.79E-11,,
,7.885,1.68E-11,,
,7.887,1.62E-11,,
,7.889,1.66E-11,,
,7.891,1.79E-11,,
,7.893,1.95E-11,,
,7.895,2.08E-11,,
,7.897,2.07E-11,,
,7.899,1.96E-11,,
,7.901,1.80E-11,,
,7.903,1.73E-11,,
,7.905,1.75E-11,,
,7.907,1.87E-11,,
,7.909,1.99E-11,,
,7.911,2.10E-11,,
,7.913,2.14E-11,,
,7.915,2.08E-11,,
,7.917,1.95E-11,,
,7.919,1.82E-11,,
,7.921,1.79E-11,,
,7.923,1.82E-11,,
,7.925,1.94E-11,,
,7.927,2.07E-11,,
,7.929,2.17E-11,,
,7.931,2.10E-11,,
,7.933,1.96E-11,,
,7.935,1.79E-11,,
,7.937,1.73E-11,,
,7.939,1.75E-11,,
,7.941,1.91E-11,,
,7.943,2.08E-11,,
,7.945,2.22E-11,,
,7.947,2.21E-11,,
,7.949,2.09E-11,,
,7.951,1.92E-11,,
,7.953,1.80E-11,,
,7.955,1.80E-11,,
,7.957,1.90E-11,,
,7.959,2.04E-11,,
,7.961,2.14E-11,,
,7.963,2.16E-11,,
,7.965,2.05E-11,,
,7.967,1.88E-11,,
,7.969,1.74E-11,,
,7.971,1.69E-11,,
,7.973,1.76E-11,,
,7.975,1.89E-11,,
,7.977,2.03E-11,,
,7.979,2.08E-11,,
,7.981,2.03E-11,,
,7.983,1.89E-11,,
,7.985,1.75E-11,,
,7.987,1.66E-11,,
,7.989,1.66E-11,,
,7.991,1.76E-11,,
,7.993,1.89E-11,,
,7.995,1.95E-11,,
,7.997,1.89E-11,,
,7.999,1.73E-11,,
,8.001,1.54E-11,,
,8.003,1.45E-11,,
,8.005,1.45E-11,,
,8.007,1.58E-11,,
,8.009,1.72E-11,,
,8.011,1.84E-11,,
,8.013,1.84E-11,,
,8.015,1.74E-11,,
,8.017,1.55E-11,,
,8.019,1.41E-11,,
,8.021,1.37E-11,,
,8.023,1.40E-11,,
,8.025,1.50E-11,,
,8.027,1.59E-11,,
,8.029,1.62E-11,,
,8.031,1.51E-11,,
,8.033,1.35E-11,,
,8.035,1.20E-11,,
,8.037,1.14E-11,,
,8.039,1.14E-11,,
,8.041,1.20E-11,,
,8.043,1.32E-11,,
,8.045,1.41E-11,,
,8.047,1.41E-11,,
,8.049,1.30E-11,,
,8.051,1.12E-11,,
,8.053,9.74E-12,,
,8.055,9.53E-12,,
,8.057,1.03E-11,,
,8.059,1.19E-11,,
,8.061,1.28E-11,,
,8.063,1.26E-11,,
,8.065,1.12E-11,,
,8.067,9.42E-12,,
,8.069,8.03E-12,,
,8.071,7.70E-12,,
,8.073,8.35E-12,,
,8.075,9.64E-12,,
,8.077,1.09E-11,,
,8.079,1.16E-11,,
,8.081,1.09E-11,,
,8.083,9.42E-12,,
,8.085,7.81E-12,,
,8.087,7.17E-12,,
,8.089,7.38E-12,,
,8.091,8.46E-12,,
,8.093,9.64E-12,,
,8.095,1.03E-11,,
,8.097,9.85E-12,,
,8.099,8.24E-12,,
,8.101,6.42E-12,,
,8.103,5.13E-12,,
,8.105,5.24E-12,,
,8.107,6.20E-12,,
,8.109,7.81E-12,,
,8.111,9.10E-12,,
,8.113,9.53E-12,,
,8.115,8.89E-12,,
,8.117,7.38E-12,,
,8.119,6.20E-12,,
,8.121,5.88E-12,,
,8.123,6.63E-12,,
,8.125,7.92E-12,,
,8.127,9.21E-12,,
,8.129,9.74E-12,,
,8.131,9.10E-12,,
,8.133,7.49E-12,,
,8.135,6.09E-12,,
,8.137,5.45E-12,,
,8.139,5.77E-12,,
,8.141,6.95E-12,,
,8.143,8.46E-12,,
,8.145,9.31E-12,,
,8.147,8.99E-12,,
,8.149,7.70E-12,,
,8.151,6.31E-12,,
,8.153,5.24E-12,,
,8.155,5.13E-12,,
,8.157,5.88E-12,,
,8.159,7.27E-12,,
,8.161,8.67E-12,,
,8.163,9.10E-12,,
,8.165,8.35E-12,,
,8.167,6.74E-12,,
,8.169,5.24E-12,,
,8.171,4.70E-12,,
,8.173,5.13E-12,,
,8.175,6.52E-12,,
,8.177,7.92E-12,,
,8.179,8.56E-12,,
,8.181,8.13E-12,,
,8.183,6.74E-12,,
,8.185,5.34E-12,,
,8.187,4.70E-12,,
,8.189,5.02E-12,,
,8.191,6.31E-12,,
,8.193,7.70E-12,,
,8.195,8.56E-12,,
,8.197,8.35E-12,,
,8.199,6.95E-12,,
,8.201,5.45E-12,,
,8.203,4.38E-12,,
,8.205,4.38E-12,,
,8.207,5.13E-12,,
,8.209,6.52E-12,,
,8.211,7.81E-12,,
,8.213,8.13E-12,,
,8.215,7.06E-12,,
,8.217,5.34E-12,,
,8.219,3.84E-12,,
,8.221,3.41E-12,,
,8.223,3.73E-12,,
,8.225,5.13E-12,,
,8.227,6.63E-12,,
,8.229,7.38E-12,,
,8.231,6.85E-12,,
,8.233,5.24E-12,,
,8.235,3.73E-12,,
,8.237,2.77E-12,,
,8.239,2.77E-12,,
,8.241,3.73E-12,,
,8.243,5.13E-12,,
,8.245,6.31E-12,,
,8.247,6.20E-12,,
,8.249,5.24E-12,,
,8.251,3.41E-12,,
,8.253,2.55E-12,,
,8.255,2.34E-12,,
,8.257,3.20E-12,,
,8.259,4.48E-12,,
,8.261,5.56E-12,,
,8.263,5.66E-12,,
,8.265,4.38E-12,,
,8.267,2.77E-12,,
,8.269,1.69E-12,,
,8.271,1.59E-12,,
,8.273,2.12E-12,,
,8.275,3.41E-12,,
,8.277,4.70E-12,,
,8.279,5.77E-12,,
,8.281,5.56E-12,,
,8.283,4.38E-12,,
,8.285,2.98E-12,,
,8.287,2.23E-12,,
,8.289,2.34E-12,,
,8.291,3.41E-12,,
,8.293,4.81E-12,,
,8.295,5.88E-12,,
,8.297,5.56E-12,,
,8.299,4.05E-12,,
,8.301,2.55E-12,,
,8.303,1.59E-12,,
,8.305,1.91E-12,,
,8.307,3.09E-12,,
,8.309,4.70E-12,,
,8.311,6.20E-12,,
,8.313,6.63E-12,,
,8.315,6.20E-12,,
,8.317,4.81E-12,,
,8.319,3.62E-12,,
,8.321,3.09E-12,,
,8.323,3.62E-12,,
,8.325,4.59E-12,,
,8.327,5.88E-12,,
,8.329,6.31E-12,,
,8.331,5.99E-12,,
,8.333,4.48E-12,,
,8.335,3.30E-12,,
,8.337,2.66E-12,,
,8.339,3.09E-12,,
,8.341,4.38E-12,,
,8.343,6.09E-12,,
,8.345,7.60E-12,,
,8.347,7.60E-12,,
,8.349,6.31E-12,,
,8.351,4.27E-12,,
,8.353,3.09E-12,,
,8.355,3.09E-12,,
,8.357,3.95E-12,,
,8.359,5.13E-12,,
,8.361,5.99E-12,,
,8.363,6.20E-12,,
,8.365,5.34E-12,,
,8.367,3.84E-12,,
,8.369,2.98E-12,,
,8.371,2.66E-12,,
,8.373,3.62E-12,,
,8.375,4.81E-12,,
,8.377,6.42E-12,,
,8.379,7.17E-12,,
,8.381,6.52E-12,,
,8.383,5.02E-12,,
,8.385,3.41E-12,,
,8.387,2.55E-12,,
,8.389,2.77E-12,,
,8.391,3.84E-12,,
,8.393,5.66E-12,,
,8.395,6.74E-12,,
,8.397,6.74E-12,,
,8.399,5.24E-12,,
,8.401,3.62E-12,,
,8.403,2.44E-12,,
,8.405,2.23E-12,,
,8.407,2.87E-12,,
,8.409,4.16E-12,,
,8.411,5.45E-12,,
,8.413,5.99E-12,,
,8.415,4.91E-12,,
,8.417,3.30E-12,,
,8.419,1.69E-12,,
,8.421,1.37E-12,,
,8.423,2.01E-12,,
,8.425,3.30E-12,,
,8.427,4.81E-12,,
,8.429,5.34E-12,,
,8.431,4.91E-12,,
,8.433,3.09E-12,,
,8.435,1.48E-12,,
,8.437,1.89E-13,,
,8.439,8.20E-14,,
,8.441,9.41E-13,,
,8.443,2.55E-12,,
,8.445,3.84E-12,,
,8.447,3.95E-12,,
,8.449,2.66E-12,,
,8.451,9.41E-13,,
,8.453,-1.33E-13,,
,8.455,-1.33E-13,,
,8.457,8.34E-13,,
,8.459,2.12E-12,,
,8.461,3.20E-12,,
,8.463,3.30E-12,,
,8.465,2.12E-12,,
,8.467,2.97E-13,,
,8.469,-1.21E-12,,
,8.471,-1.74E-12,,
,8.473,-1.10E-12,,
,8.475,4.04E-13,,
,8.477,2.01E-12,,
,8.479,2.98E-12,,
,8.481,2.55E-12,,
,8.483,1.26E-12,,
,8.485,-3.47E-13,,
,8.487,-9.92E-13,,
,8.489,-6.69E-13,,
,8.491,5.11E-13,,
,8.493,1.80E-12,,
,8.495,2.66E-12,,
,8.497,2.44E-12,,
,8.499,1.16E-12,,
,8.501,-7.77E-13,,
,8.503,-2.17E-12,,
,8.505,-2.49E-12,,
,8.507,-1.64E-12,,
,8.509,1.89E-13,,
,8.511,1.69E-12,,
,8.513,2.44E-12,,
,8.515,1.59E-12,,
,8.517,4.04E-13,,
,8.519,-8.84E-13,,
,8.521,-9.92E-13,,
,8.523,-4.55E-13,,
,8.525,9.41E-13,,
,8.527,2.44E-12,,
,8.529,3.20E-12,,
,8.531,2.66E-12,,
,8.533,1.16E-12,,
,8.535,-3.47E-13,,
,8.537,-9.92E-13,,
,8.539,-6.69E-13,,
,8.541,1.05E-12,,
,8.543,3.20E-12,,
,8.545,4.70E-12,,
,8.547,4.48E-12,,
,8.549,3.30E-12,,
,8.551,1.91E-12,,
,8.553,1.16E-12,,
,8.555,1.05E-12,,
,8.557,1.80E-12,,
,8.559,3.30E-12,,
,8.561,4.59E-12,,
,8.563,5.02E-12,,
,8.565,3.95E-12,,
,8.567,2.34E-12,,
,8.569,9.41E-13,,
,8.571,6.19E-13,,
,8.573,1.48E-12,,
,8.575,3.09E-12,,
,8.577,4.81E-12,,
,8.579,5.88E-12,,
,8.581,5.56E-12,,
,8.583,4.70E-12,,
,8.585,3.20E-12,,
,8.587,2.44E-12,,
,8.589,2.23E-12,,
,8.591,2.98E-12,,
,8.593,4.38E-12,,
,8.595,5.24E-12,,
,8.597,5.24E-12,,
,8.599,3.95E-12,,
,8.601,2.34E-12,,
,8.603,1.37E-12,,
,8.605,1.26E-12,,
,8.607,2.34E-12,,
,8.609,4.27E-12,,
,8.611,5.99E-12,,
,8.613,6.42E-12,,
,8.615,5.45E-12,,
,8.617,4.05E-12,,
,8.619,2.87E-12,,
,8.621,2.23E-12,,
,8.623,2.66E-12,,
,8.625,3.95E-12,,
,8.627,5.34E-12,,
,8.629,6.09E-12,,
,8.631,5.56E-12,,
,8.633,4.16E-12,,
,8.635,2.66E-12,,
,8.637,2.01E-12,,
,8.639,2.55E-12,,
,8.641,3.84E-12,,
,8.643,5.56E-12,,
,8.645,6.85E-12,,
,8.647,7.06E-12,,
,8.649,5.88E-12,,
,8.651,4.38E-12,,
,8.653,3.20E-12,,
,8.655,2.98E-12,,
,8.657,3.62E-12,,
,8.659,4.70E-12,,
,8.661,5.88E-12,,
,8.663,6.09E-12,,
,8.665,5.34E-12,,
,8.667,3.73E-12,,
,8.669,2.44E-12,,
,8.671,1.91E-12,,
,8.673,2.55E-12,,
,8.675,3.41E-12,,
,8.677,4.38E-12,,
,8.679,4.59E-12,,
,8.681,3.84E-12,,
,8.683,2.23E-12,,
,8.685,6.19E-13,,
,8.687,-3.47E-13,,
,8.689,-2.53E-14,,
,8.691,9.41E-13,,
,8.693,2.55E-12,,
,8.695,3.41E-12,,
,8.697,3.41E-12,,
,8.699,2.23E-12,,
,8.701,6.19E-13,,
,8.703,-5.62E-13,,
,8.705,-5.62E-13,,
,8.707,4.04E-13,,
,8.709,2.12E-12,,
,8.711,3.62E-12,,
,8.713,4.16E-12,,
,8.715,3.30E-12,,
,8.717,1.80E-12,,
,8.719,7.26E-13,,
,8.721,4.04E-13,,
,8.723,1.16E-12,,
,8.725,2.44E-12,,
,8.727,3.95E-12,,
,8.729,4.48E-12,,
,8.731,4.05E-12,,
,8.733,2.66E-12,,
,8.735,1.48E-12,,
,8.737,7.26E-13,,
,8.739,8.34E-13,,
,8.741,1.91E-12,,
,8.743,3.41E-12,,
,8.745,4.81E-12,,
,8.747,4.91E-12,,
,8.749,4.16E-12,,
,8.751,2.98E-12,,
,8.753,2.23E-12,,
,8.755,2.23E-12,,
,8.757,3.30E-12,,
,8.759,4.81E-12,,
,8.761,6.31E-12,,
,8.763,6.74E-12,,
,8.765,6.09E-12,,
,8.767,4.70E-12,,
,8.769,3.52E-12,,
,8.771,3.30E-12,,
,8.773,3.95E-12,,
,8.775,5.24E-12,,
,8.777,6.74E-12,,
,8.779,8.03E-12,,
,8.781,8.03E-12,,
,8.783,6.74E-12,,
,8.785,5.34E-12,,
,8.787,4.81E-12,,
,8.789,5.56E-12,,
,8.791,6.74E-12,,
,8.793,8.35E-12,,
,8.795,9.42E-12,,
,8.797,9.42E-12,,
,8.799,8.35E-12,,
,8.801,6.63E-12,,
,8.803,5.66E-12,,
,8.805,5.45E-12,,
,8.807,6.63E-12,,
,8.809,8.24E-12,,
,8.811,9.96E-12,,
,8.813,1.05E-11,,
,8.815,9.85E-12,,
,8.817,8.13E-12,,
,8.819,6.74E-12,,
,8.821,5.99E-12,,
,8.823,6.42E-12,,
,8.825,7.49E-12,,
,8.827,8.89E-12,,
,8.829,9.74E-12,,
,8.831,9.42E-12,,
,8.833,8.13E-12,,
,8.835,6.63E-12,,
,8.837,5.77E-12,,
,8.839,5.99E-12,,
,8.841,7.27E-12,,
,8.843,8.78E-12,,
,8.845,1.01E-11,,
,8.847,9.96E-12,,
,8.849,8.78E-12,,
,8.851,7.06E-12,,
,8.853,6.09E-12,,
,8.855,6.09E-12,,
,8.857,6.85E-12,,
,8.859,7.92E-12,,
,8.861,8.89E-12,,
,8.863,9.10E-12,,
,8.865,8.13E-12,,
,8.867,6.52E-12,,
,8.869,5.02E-12,,
,8.871,4.48E-12,,
,8.873,4.81E-12,,
,8.875,5.88E-12,,
,8.877,7.17E-12,,
,8.879,8.03E-12,,
,8.881,7.81E-12,,
,8.883,6.42E-12,,
,8.885,5.02E-12,,
,8.887,4.16E-12,,
,8.889,4.16E-12,,
,8.891,4.81E-12,,
,8.893,5.99E-12,,
,8.895,6.85E-12,,
,8.897,6.95E-12,,
,8.899,5.66E-12,,
,8.901,4.38E-12,,
,8.903,3.41E-12,,
,8.905,3.41E-12,,
,8.907,4.38E-12,,
,8.909,5.99E-12,,
,8.911,7.38E-12,,
,8.913,7.70E-12,,
,8.915,6.74E-12,,
,8.917,5.34E-12,,
,8.919,3.95E-12,,
,8.921,3.20E-12,,
,8.923,3.62E-12,,
,8.925,4.70E-12,,
,8.927,6.20E-12,,
,8.929,6.74E-12,,
,8.931,6.09E-12,,
,8.933,4.27E-12,,
,8.935,2.55E-12,,
,8.937,1.91E-12,,
,8.939,2.12E-12,,
,8.941,3.52E-12,,
,8.943,5.02E-12,,
,8.945,6.52E-12,,
,8.947,6.20E-12,,
,8.949,4.81E-12,,
,8.951,2.87E-12,,
,8.953,1.69E-12,,
,8.955,1.59E-12,,
,8.957,2.55E-12,,
,8.959,4.05E-12,,
,8.961,5.66E-12,,
,8.963,5.99E-12,,
,8.965,5.34E-12,,
,8.967,3.73E-12,,
,8.969,2.44E-12,,
,8.971,2.12E-12,,
,8.973,2.77E-12,,
,8.975,4.16E-12,,
,8.977,5.66E-12,,
,8.979,6.42E-12,,
,8.981,5.99E-12,,
,8.983,4.59E-12,,
,8.985,3.20E-12,,
,8.987,2.55E-12,,
,8.989,2.98E-12,,
,8.991,4.05E-12,,
,8.993,5.56E-12,,
,8.995,6.52E-12,,
,8.997,6.74E-12,,
,8.999,5.77E-12,,
,9.001,4.16E-12,,
,9.003,3.41E-12,,
,9.005,3.41E-12,,
,9.007,4.38E-12,,
,9.009,5.56E-12,,
,9.011,6.95E-12,,
,9.013,7.70E-12,,
,9.015,7.17E-12,,
,9.017,5.77E-12,,
,9.019,4.59E-12,,
,9.021,4.16E-12,,
,9.023,4.70E-12,,
,9.025,5.88E-12,,
,9.027,7.38E-12,,
,9.029,8.24E-12,,
,9.031,7.92E-12,,
,9.033,6.42E-12,,
,9.035,4.91E-12,,
,9.037,3.95E-12,,
,9.039,4.27E-12,,
,9.041,5.34E-12,,
,9.043,6.63E-12,,
,9.045,7.70E-12,,
,9.047,7.70E-12,,
,9.049,6.74E-12,,
,9.051,5.13E-12,,
,9.053,3.95E-12,,
,9.055,3.95E-12,,
,9.057,4.91E-12,,
,9.059,6.63E-12,,
,9.061,8.03E-12,,
,9.063,8.24E-12,,
,9.065,7.27E-12,,
,9.067,5.66E-12,,
,9.069,4.59E-12,,
,9.071,4.38E-12,,
,9.073,5.24E-12,,
,9.075,6.42E-12,,
,9.077,7.70E-12,,
,9.079,8.67E-12,,
,9.081,8.56E-12,,
,9.083,7.49E-12,,
,9.085,5.77E-12,,
,9.087,5.02E-12,,
,9.089,5.13E-12,,
,9.091,6.31E-12,,
,9.093,7.81E-12,,
,9.095,9.10E-12,,
,9.097,9.31E-12,,
,9.099,8.35E-12,,
,9.101,6.85E-12,,
,9.103,5.77E-12,,
,9.105,5.66E-12,,
,9.107,6.52E-12,,
,9.109,7.92E-12,,
,9.111,9.42E-12,,
,9.113,1.01E-11,,
,9.115,9.53E-12,,
,9.117,8.13E-12,,
,9.119,6.95E-12,,
,9.121,6.52E-12,,
,9.123,7.17E-12,,
,9.125,8.67E-12,,
,9.127,1.04E-11,,
,9.129,1.11E-11,,
,9.131,1.05E-11,,
,9.133,8.99E-12,,
,9.135,7.49E-12,,
,9.137,6.74E-12,,
,9.139,6.74E-12,,
,9.141,7.81E-12,,
,9.143,9.31E-12,,
,9.145,1.07E-11,,
,9.147,1.12E-11,,
,9.149,1.05E-11,,
,9.151,9.42E-12,,
,9.153,8.56E-12,,
,9.155,8.89E-12,,
,9.157,9.85E-12,,
,9.159,1.14E-11,,
,9.161,1.29E-11,,
,9.163,1.38E-11,,
,9.165,1.32E-11,,
,9.167,1.16E-11,,
,9.169,9.96E-12,,
,9.171,9.64E-12,,
,9.173,1.02E-11,,
,9.175,1.15E-11,,
,9.177,1.30E-11,,
,9.179,1.38E-11,,
,9.181,1.36E-11,,
,9.183,1.23E-11,,
,9.185,1.11E-11,,
,9.187,1.05E-11,,
,9.189,1.06E-11,,
,9.191,1.19E-11,,
,9.193,1.35E-11,,
,9.195,1.48E-11,,
,9.197,1.46E-11,,
,9.199,1.31E-11,,
,9.201,1.15E-11,,
,9.203,1.04E-11,,
,9.205,1.04E-11,,
,9.207,1.08E-11,,
,9.209,1.21E-11,,
,9.211,1.34E-11,,
,9.213,1.40E-11,,
,9.215,1.32E-11,,
,9.217,1.16E-11,,
,9.219,1.04E-11,,
,9.221,9.96E-12,,
,9.223,1.06E-11,,
,9.225,1.18E-11,,
,9.227,1.31E-11,,
,9.229,1.33E-11,,
,9.231,1.25E-11,,
,9.233,1.10E-11,,
,9.235,9.64E-12,,
,9.237,8.56E-12,,
,9.239,8.46E-12,,
,9.241,9.21E-12,,
,9.243,1.06E-11,,
,9.245,1.14E-11,,
,9.247,1.10E-11,,
,9.249,9.53E-12,,
,9.251,7.70E-12,,
,9.253,6.09E-12,,
,9.255,5.45E-12,,
,9.257,5.77E-12,,
,9.259,7.06E-12,,
,9.261,8.13E-12,,
,9.263,8.35E-12,,
,9.265,7.17E-12,,
,9.267,5.24E-12,,
,9.269,3.41E-12,,
,9.271,2.55E-12,,
,9.273,2.77E-12,,
,9.275,4.05E-12,,
,9.277,5.45E-12,,
,9.279,6.09E-12,,
,9.281,5.45E-12,,
,9.283,3.73E-12,,
,9.285,1.91E-12,,
,9.287,8.34E-13,,
,9.289,1.05E-12,,
,9.291,2.23E-12,,
,9.293,3.52E-12,,
,9.295,4.48E-12,,
,9.297,4.27E-12,,
,9.299,3.09E-12,,
,9.301,1.59E-12,,
,9.303,5.11E-13,,
,9.305,8.20E-14,,
,9.307,6.19E-13,,
,9.309,2.12E-12,,
,9.311,3.62E-12,,
,9.313,4.16E-12,,
,9.315,3.30E-12,,
,9.317,1.69E-12,,
,9.319,4.04E-13,,
,9.321,-2.40E-13,,
,9.323,4.04E-13,,
,9.325,1.59E-12,,
,9.327,3.20E-12,,
,9.329,3.95E-12,,
,9.331,3.52E-12,,
,9.333,1.91E-12,,
,9.335,6.19E-13,,
,9.337,-1.33E-13,,
,9.339,1.89E-13,,
,9.341,1.16E-12,,
,9.343,2.55E-12,,
,9.345,4.05E-12,,
,9.347,4.05E-12,,
,9.349,3.09E-12,,
,9.351,1.37E-12,,
,9.353,4.04E-13,,
,9.355,1.89E-13,,
,9.357,9.41E-13,,
,9.359,2.55E-12,,
,9.361,4.27E-12,,
,9.363,5.02E-12,,
,9.365,4.27E-12,,
,9.367,2.87E-12,,
,9.369,1.80E-12,,
,9.371,1.80E-12,,
,9.373,2.66E-12,,
,9.375,4.27E-12,,
,9.377,6.09E-12,,
,9.379,7.38E-12,,
,9.381,7.27E-12,,
,9.383,6.52E-12,,
,9.385,5.34E-12,,
,9.387,5.24E-12,,
,9.389,5.66E-12,,
,9.391,7.17E-12,,
,9.393,8.67E-12,,
,9.395,9.74E-12,,
,9.397,9.53E-12,,
,9.399,8.24E-12,,
,9.401,6.52E-12,,
,9.403,5.56E-12,,
,9.405,5.24E-12,,
,9.407,5.88E-12,,
,9.409,6.95E-12,,
,9.411,8.24E-12,,
,9.413,8.67E-12,,
,9.415,7.70E-12,,
,9.417,5.88E-12,,
,9.419,4.27E-12,,
,9.421,3.73E-12,,
,9.423,4.16E-12,,
,9.425,5.24E-12,,
,9.427,6.09E-12,,
,9.429,6.52E-12,,
,9.431,5.77E-12,,
,9.433,4.05E-12,,
,9.435,1.91E-12,,
,9.437,4.04E-13,,
,9.439,8.20E-14,,
,9.441,7.26E-13,,
,9.443,1.80E-12,,
,9.445,2.55E-12,,
,9.447,2.44E-12,,
,9.449,1.16E-12,,
,9.451,-6.69E-13,,
,9.453,-2.07E-12,,
,9.455,-2.49E-12,,
,9.457,-2.07E-12,,
,9.459,-1.21E-12,,
,9.461,-5.62E-13,,
,9.463,-5.62E-13,,
,9.465,-1.85E-12,,
,9.467,-3.89E-12,,
,9.469,-5.82E-12,,
,9.471,-6.79E-12,,
,9.473,-6.79E-12,,
,9.475,-6.04E-12,,
,9.477,-4.86E-12,,
,9.479,-4.21E-12,,
,9.481,-4.64E-12,,
,9.483,-6.47E-12,,
,9.485,-8.18E-12,,
,9.487,-9.26E-12,,
,9.489,-8.94E-12,,
,9.491,-8.29E-12,,
,9.493,-7.22E-12,,
,9.495,-6.79E-12,,
,9.497,-7.11E-12,,
,9.499,-8.51E-12,,
,9.501,-1.04E-11,,
,9.503,-1.19E-11,,
,9.505,-1.24E-11,,
,9.507,-1.17E-11,,
,9.509,-1.03E-11,,
,9.511,-9.04E-12,,
,9.513,-8.61E-12,,
,9.515,-9.37E-12,,
,9.517,-1.12E-11,,
,9.519,-1.28E-11,,
,9.521,-1.34E-11,,
,9.523,-1.30E-11,,
,9.525,-1.18E-11,,
,9.527,-1.05E-11,,
,9.529,-9.90E-12,,
,9.531,-1.04E-11,,
,9.533,-1.24E-11,,
,9.535,-1.42E-11,,
,9.537,-1.53E-11,,
,9.539,-1.47E-11,,
,9.541,-1.38E-11,,
,9.543,-1.23E-11,,
,9.545,-1.12E-11,,
,9.547,-1.08E-11,,
,9.549,-1.15E-11,,
,9.551,-1.30E-11,,
,9.553,-1.41E-11,,
,9.555,-1.42E-11,,
,9.557,-1.32E-11,,
,9.559,-1.17E-11,,
,9.561,-1.02E-11,,
,9.563,-9.58E-12,,
,9.565,-1.00E-11,,
,9.567,-1.15E-11,,
,9.569,-1.27E-11,,
,9.571,-1.31E-11,,
,9.573,-1.24E-11,,
,9.575,-1.11E-11,,
,9.577,-9.47E-12,,
,9.579,-8.51E-12,,
,9.581,-8.83E-12,,
,9.583,-1.00E-11,,
,9.585,-1.14E-11,,
,9.587,-1.17E-11,,
,9.589,-1.13E-11,,
,9.591,-1.01E-11,,
,9.593,-8.72E-12,,
,9.595,-7.43E-12,,
,9.597,-7.22E-12,,
,9.599,-8.08E-12,,
,9.601,-9.79E-12,,
,9.603,-1.08E-11,,
,9.605,-1.09E-11,,
,9.607,-1.00E-11,,
,9.609,-8.61E-12,,
,9.611,-7.43E-12,,
,9.613,-6.90E-12,,
,9.615,-7.43E-12,,
,9.617,-8.40E-12,,
,9.619,-9.15E-12,,
,9.621,-9.47E-12,,
,9.623,-8.83E-12,,
,9.625,-7.54E-12,,
,9.627,-5.93E-12,,
,9.629,-4.75E-12,,
,9.631,-5.07E-12,,
,9.633,-6.36E-12,,
,9.635,-7.97E-12,,
,9.637,-8.72E-12,,
,9.639,-8.51E-12,,
,9.641,-7.75E-12,,
,9.643,-6.25E-12,,
,9.645,-5.18E-12,,
,9.647,-4.75E-12,,
,9.649,-5.61E-12,,
,9.651,-6.90E-12,,
,9.653,-7.86E-12,,
,9.655,-8.08E-12,,
,9.657,-7.11E-12,,
,9.659,-5.61E-12,,
,9.661,-4.21E-12,,
,9.663,-3.68E-12,,
,9.665,-4.32E-12,,
,9.667,-5.72E-12,,
,9.669,-6.90E-12,,
,9.671,-7.54E-12,,
,9.673,-7.00E-12,,
,9.675,-5.72E-12,,
,9.677,-4.43E-12,,
,9.679,-3.46E-12,,
,9.681,-4.00E-12,,
,9.683,-5.29E-12,,
,9.685,-6.90E-12,,
,9.687,-7.43E-12,,
,9.689,-6.90E-12,,
,9.691,-5.82E-12,,
,9.693,-4.53E-12,,
,9.695,-3.35E-12,,
,9.697,-3.25E-12,,
,9.699,-4.32E-12,,
,9.701,-6.04E-12,,
,9.703,-7.11E-12,,
,9.705,-7.22E-12,,
,9.707,-6.25E-12,,
,9.709,-4.86E-12,,
,9.711,-3.57E-12,,
,9.713,-3.35E-12,,
,9.715,-4.00E-12,,
,9.717,-5.29E-12,,
,9.719,-6.36E-12,,
,9.721,-7.00E-12,,
,9.723,-6.57E-12,,
,9.725,-5.18E-12,,
,9.727,-3.57E-12,,
,9.729,-2.71E-12,,
,9.731,-3.46E-12,,
,9.733,-5.18E-12,,
,9.735,-7.00E-12,,
,9.737,-7.75E-12,,
,9.739,-7.43E-12,,
,9.741,-6.25E-12,,
,9.743,-4.64E-12,,
,9.745,-3.46E-12,,
,9.747,-3.14E-12,,
,9.749,-4.10E-12,,
,9.751,-5.50E-12,,
,9.753,-6.68E-12,,
,9.755,-7.22E-12,,
,9.757,-6.25E-12,,
,9.759,-4.96E-12,,
,9.761,-3.25E-12,,
,9.763,-2.82E-12,,
,9.765,-3.46E-12,,
,9.767,-5.18E-12,,
,9.769,-6.57E-12,,
,9.771,-7.22E-12,,
,9.773,-6.57E-12,,
,9.775,-5.29E-12,,
,9.777,-3.57E-12,,
,9.779,-2.49E-12,,
,9.781,-2.39E-12,,
,9.783,-3.89E-12,,
,9.785,-5.18E-12,,
,9.787,-6.14E-12,,
,9.789,-5.61E-12,,
,9.791,-4.64E-12,,
,9.793,-3.14E-12,,
,9.795,-2.07E-12,,
,9.797,-2.07E-12,,
,9.799,-3.46E-12,,
,9.801,-5.07E-12,,
,9.803,-6.25E-12,,
,9.805,-6.57E-12,,
,9.807,-5.93E-12,,
,9.809,-4.64E-12,,
,9.811,-3.14E-12,,
,9.813,-2.71E-12,,
,9.815,-3.35E-12,,
,9.817,-4.86E-12,,
,9.819,-6.25E-12,,
,9.821,-6.90E-12,,
,9.823,-6.68E-12,,
,9.825,-5.61E-12,,
,9.827,-4.21E-12,,
,9.829,-3.25E-12,,
,9.831,-3.25E-12,,
,9.833,-4.75E-12,,
,9.835,-6.14E-12,,
,9.837,-7.11E-12,,
,9.839,-6.79E-12,,
,9.841,-5.61E-12,,
,9.843,-3.89E-12,,
,9.845,-2.60E-12,,
,9.847,-2.60E-12,,
,9.849,-3.78E-12,,
,9.851,-5.39E-12,,
,9.853,-6.47E-12,,
,9.855,-6.57E-12,,
,9.857,-5.72E-12,,
,9.859,-4.32E-12,,
,9.861,-3.14E-12,,
,9.863,-2.92E-12,,
,9.865,-3.78E-12,,
,9.867,-5.39E-12,,
,9.869,-6.90E-12,,
,9.871,-7.54E-12,,
,9.873,-7.22E-12,,
,9.875,-5.82E-12,,
,9.877,-4.32E-12,,
,9.879,-3.03E-12,,
,9.881,-3.46E-12,,
,9.883,-5.07E-12,,
,9.885,-6.79E-12,,
,9.887,-7.75E-12,,
,9.889,-7.43E-12,,
,9.891,-6.57E-12,,
,9.893,-5.07E-12,,
,9.895,-4.00E-12,,
,9.897,-4.21E-12,,
,9.899,-5.18E-12,,
,9.901,-7.00E-12,,
,9.903,-8.08E-12,,
,9.905,-8.40E-12,,
,9.907,-7.54E-12,,
,9.909,-6.04E-12,,
,9.911,-4.64E-12,,
,9.913,-4.10E-12,,
,9.915,-4.86E-12,,
,9.917,-6.57E-12,,
,9.919,-7.75E-12,,
,9.921,-8.18E-12,,
,9.923,-7.54E-12,,
,9.925,-6.36E-12,,
,9.927,-4.86E-12,,
,9.929,-3.89E-12,,
,9.931,-4.21E-12,,
,9.933,-5.61E-12,,
,9.935,-7.11E-12,,
,9.937,-7.97E-12,,
,9.939,-7.97E-12,,
,9.941,-7.11E-12,,
,9.943,-5.72E-12,,
,9.945,-4.21E-12,,
,9.947,-4.00E-12,,
,9.949,-4.86E-12,,
,9.951,-6.36E-12,,
,9.953,-7.11E-12,,
,9.955,-7.11E-12,,
,9.957,-6.14E-12,,
,9.959,-4.75E-12,,
,9.961,-3.35E-12,,
,9.963,-2.92E-12,,
,9.965,-3.68E-12,,
,9.967,-5.18E-12,,
,9.969,-6.57E-12,,
,9.971,-7.11E-12,,
,9.973,-6.79E-12,,
,9.975,-5.39E-12,,
,9.977,-3.89E-12,,
,9.979,-2.60E-12,,
,9.981,-2.82E-12,,
,9.983,-3.78E-12,,
,9.985,-5.07E-12,,
,9.987,-5.39E-12,,
,9.989,-5.07E-12,,
,9.991,-4.00E-12,,
,9.993,-2.49E-12,,
,9.995,-1.31E-12,,
,9.997,-8.84E-13,,
,9.999,-2.07E-12,,
,10.001,-3.57E-12,,
,10.003,-4.86E-12,,
,10.005,-4.86E-12,,
,10.007,-4.00E-12,,
,10.009,-2.49E-12,,
,10.011,-7.77E-13,,
,10.013,-2.53E-14,,
,10.015,-3.47E-13,,
,10.017,-1.96E-12,,
,10.019,-3.03E-12,,
,10.021,-3.35E-12,,
,10.023,-2.39E-12,,
,10.025,-8.84E-13,,
,10.027,1.05E-12,,
,10.029,2.01E-12,,
,10.031,2.12E-12,,
,10.033,7.26E-13,,
,10.035,-6.69E-13,,
,10.037,-1.53E-12,,
,10.039,-1.10E-12,,
,10.041,1.89E-13,,
,10.043,1.91E-12,,
,10.045,3.30E-12,,
,10.047,4.05E-12,,
,10.049,3.30E-12,,
,10.051,1.91E-12,,
,10.053,7.26E-13,,
,10.055,6.19E-13,,
,10.057,1.48E-12,,
,10.059,2.87E-12,,
,10.061,4.27E-12,,
,10.063,4.81E-12,,
,10.065,4.27E-12,,
,10.067,2.77E-12,,
,10.069,1.48E-12,,
,10.071,8.34E-13,,
,10.073,1.59E-12,,
,10.075,2.98E-12,,
,10.077,4.70E-12,,
,10.079,5.66E-12,,
,10.081,5.66E-12,,
,10.083,4.59E-12,,
,10.085,3.20E-12,,
,10.087,2.23E-12,,
,10.089,2.44E-12,,
,10.091,3.62E-12,,
,10.093,5.45E-12,,
,10.095,6.52E-12,,
,10.097,7.06E-12,,
,10.099,6.20E-12,,
,10.101,4.91E-12,,
,10.103,3.73E-12,,
,10.105,3.73E-12,,
,10.107,4.59E-12,,
,10.109,5.99E-12,,
,10.111,7.17E-12,,
,10.113,7.92E-12,,
,10.115,7.38E-12,,
,10.117,6.20E-12,,
,10.119,4.81E-12,,
,10.121,4.38E-12,,
,10.123,4.70E-12,,
,10.125,6.31E-12,,
,10.127,7.92E-12,,
,10.129,8.99E-12,,
,10.131,8.56E-12,,
,10.133,7.38E-12,,
,10.135,6.20E-12,,
,10.137,5.45E-12,,
,10.139,5.45E-12,,
,10.141,6.31E-12,,
,10.143,7.92E-12,,
,10.145,9.31E-12,,
,10.147,9.53E-12,,
,10.149,8.46E-12,,
,10.151,6.74E-12,,
,10.153,5.66E-12,,
,10.155,5.56E-12,,
,10.157,6.63E-12,,
,10.159,8.13E-12,,
,10.161,9.64E-12,,
,10.163,1.03E-11,,
,10.165,9.64E-12,,
,10.167,8.03E-12,,
,10.169,6.42E-12,,
,10.171,5.66E-12,,
,10.173,5.99E-12,,
,10.175,7.17E-12,,
,10.177,8.46E-12,,
,10.179,9.10E-12,,
,10.181,8.67E-12,,
,10.183,7.27E-12,,
,10.185,5.66E-12,,
,10.187,4.59E-12,,
,10.189,4.48E-12,,
,10.191,5.66E-12,,
,10.193,7.06E-12,,
,10.195,8.46E-12,,
,10.197,8.35E-12,,
,10.199,7.17E-12,,
,10.201,5.34E-12,,
,10.203,3.73E-12,,
,10.205,3.41E-12,,
,10.207,3.84E-12,,
,10.209,5.45E-12,,
,10.211,6.63E-12,,
,10.213,7.38E-12,,
,10.215,6.63E-12,,
,10.217,5.24E-12,,
,10.219,3.95E-12,,
,10.221,3.52E-12,,
,10.223,4.16E-12,,
,10.225,5.66E-12,,
,10.227,7.38E-12,,
,10.229,8.46E-12,,
,10.231,7.92E-12,,
,10.233,6.42E-12,,
,10.235,4.59E-12,,
,10.237,3.62E-12,,
,10.239,3.62E-12,,
,10.241,4.48E-12,,
,10.243,5.77E-12,,
,10.245,6.85E-12,,
,10.247,6.85E-12,,
,10.249,5.66E-12,,
,10.251,3.84E-12,,
,10.253,2.98E-12,,
,10.255,2.98E-12,,
,10.257,4.05E-12,,
,10.259,5.13E-12,,
,10.261,6.20E-12,,
,10.263,6.42E-12,,
,10.265,5.66E-12,,
,10.267,4.05E-12,,
,10.269,2.66E-12,,
,10.271,2.12E-12,,
,10.273,2.55E-12,,
,10.275,3.84E-12,,
,10.277,5.13E-12,,
,10.279,6.09E-12,,
,10.281,5.66E-12,,
,10.283,4.59E-12,,
,10.285,2.98E-12,,
,10.287,2.44E-12,,
,10.289,2.87E-12,,
,10.291,4.27E-12,,
,10.293,5.99E-12,,
,10.295,7.27E-12,,
,10.297,7.38E-12,,
,10.299,6.20E-12,,
,10.301,4.27E-12,,
,10.303,3.09E-12,,
,10.305,2.66E-12,,
,10.307,3.41E-12,,
,10.309,5.02E-12,,
,10.311,6.42E-12,,
,10.313,7.17E-12,,
,10.315,6.42E-12,,
,10.317,5.24E-12,,
,10.319,4.05E-12,,
,10.321,3.73E-12,,
,10.323,4.27E-12,,
,10.325,5.45E-12,,
,10.327,7.06E-12,,
,10.329,8.13E-12,,
,10.331,7.92E-12,,
,10.333,6.20E-12,,
,10.335,4.38E-12,,
,10.337,3.20E-12,,
,10.339,3.30E-12,,
,10.341,4.05E-12,,
,10.343,5.45E-12,,
,10.345,6.74E-12,,
,10.347,6.95E-12,,
,10.349,6.09E-12,,
,10.351,4.70E-12,,
,10.353,3.73E-12,,
,10.355,3.95E-12,,
,10.357,4.70E-12,,
,10.359,6.31E-12,,
,10.361,7.60E-12,,
,10.363,8.03E-12,,
,10.365,6.95E-12,,
,10.367,5.02E-12,,
,10.369,3.41E-12,,
,10.371,3.09E-12,,
,10.373,3.73E-12,,
,10.375,4.91E-12,,
,10.377,6.31E-12,,
,10.379,7.17E-12,,
,10.381,7.06E-12,,
,10.383,5.77E-12,,
,10.385,4.38E-12,,
,10.387,3.84E-12,,
,10.389,3.95E-12,,
,10.391,4.81E-12,,
,10.393,6.09E-12,,
,10.395,7.38E-12,,
,10.397,7.38E-12,,
,10.399,5.99E-12,,
,10.401,4.05E-12,,
,10.403,2.98E-12,,
,10.405,2.87E-12,,
,10.407,3.73E-12,,
,10.409,5.02E-12,,
,10.411,6.52E-12,,
,10.413,6.95E-12,,
,10.415,6.42E-12,,
,10.417,4.91E-12,,
,10.419,3.84E-12,,
,10.421,3.52E-12,,
,10.423,4.05E-12,,
,10.425,5.45E-12,,
,10.427,6.85E-12,,
,10.429,7.70E-12,,
,10.431,7.17E-12,,
,10.433,5.56E-12,,
,10.435,4.05E-12,,
,10.437,2.87E-12,,
,10.439,2.87E-12,,
,10.441,3.62E-12,,
,10.443,5.34E-12,,
,10.445,6.52E-12,,
,10.447,6.85E-12,,
,10.449,5.56E-12,,
,10.451,4.27E-12,,
,10.453,2.87E-12,,
,10.455,2.77E-12,,
,10.457,3.41E-12,,
,10.459,4.81E-12,,
,10.461,6.09E-12,,
,10.463,6.42E-12,,
,10.465,5.56E-12,,
,10.467,3.84E-12,,
,10.469,2.34E-12,,
,10.471,1.80E-12,,
,10.473,2.44E-12,,
,10.475,3.62E-12,,
,10.477,5.02E-12,,
,10.479,5.88E-12,,
,10.481,5.77E-12,,
,10.483,4.59E-12,,
,10.485,3.09E-12,,
,10.487,2.12E-12,,
,10.489,2.12E-12,,
,10.491,2.98E-12,,
,10.493,4.48E-12,,
,10.495,5.66E-12,,
,10.497,5.77E-12,,
,10.499,4.48E-12,,
,10.501,2.77E-12,,
,10.503,1.48E-12,,
,10.505,1.16E-12,,
,10.507,1.91E-12,,
,10.509,3.41E-12,,
,10.511,4.91E-12,,
,10.513,5.56E-12,,
,10.515,4.70E-12,,
,10.517,3.41E-12,,
,10.519,2.01E-12,,
,10.521,1.91E-12,,
,10.523,2.55E-12,,
,10.525,4.16E-12,,
,10.527,5.34E-12,,
,10.529,6.20E-12,,
,10.531,5.99E-12,,
,10.533,5.02E-12,,
,10.535,3.41E-12,,
,10.537,2.44E-12,,
,10.539,2.55E-12,,
,10.541,3.62E-12,,
,10.543,4.91E-12,,
,10.545,5.99E-12,,
,10.547,5.88E-12,,
,10.549,4.70E-12,,
,10.551,2.87E-12,,
,10.553,1.69E-12,,
,10.555,1.59E-12,,
,10.557,2.55E-12,,
,10.559,4.16E-12,,
,10.561,5.56E-12,,
,10.563,6.20E-12,,
,10.565,5.56E-12,,
,10.567,4.16E-12,,
,10.569,2.55E-12,,
,10.571,1.80E-12,,
,10.573,2.01E-12,,
,10.575,3.20E-12,,
,10.577,4.59E-12,,
,10.579,5.13E-12,,
,10.581,4.48E-12,,
,10.583,2.87E-12,,
,10.585,1.37E-12,,
,10.587,7.26E-13,,
,10.589,1.05E-12,,
,10.591,2.12E-12,,
,10.593,3.30E-12,,
,10.595,4.16E-12,,
,10.597,4.38E-12,,
,10.599,3.62E-12,,
,10.601,2.01E-12,,
,10.603,5.11E-13,,
,10.605,-2.40E-13,,
,10.607,4.04E-13,,
,10.609,1.59E-12,,
,10.611,2.98E-12,,
,10.613,3.20E-12,,
,10.615,2.34E-12,,
,10.617,5.11E-13,,
,10.619,-8.84E-13,,
,10.621,-1.42E-12,,
,10.623,-8.84E-13,,
,10.625,4.04E-13,,
,10.627,1.91E-12,,
,10.629,2.77E-12,,
,10.631,2.23E-12,,
,10.633,6.19E-13,,
,10.635,-9.92E-13,,
,10.637,-1.85E-12,,
,10.639,-1.85E-12,,
,10.641,-1.21E-12,,
,10.643,8.20E-14,,
,10.645,1.16E-12,,
,10.647,1.37E-12,,
,10.649,2.97E-13,,
,10.651,-9.92E-13,,
,10.653,-2.17E-12,,
,10.655,-2.49E-12,,
,10.657,-1.85E-12,,
,10.659,-3.47E-13,,
,10.661,1.26E-12,,
,10.663,1.69E-12,,
,10.665,9.41E-13,,
,10.667,-6.69E-13,,
,10.669,-2.07E-12,,
,10.671,-2.71E-12,,
,10.673,-2.28E-12,,
,10.675,-8.84E-13,,
,10.677,8.34E-13,,
,10.679,1.69E-12,,
,10.681,1.26E-12,,
,10.683,-1.33E-13,,
,10.685,-1.31E-12,,
,10.687,-1.85E-12,,
,10.689,-1.53E-12,,
,10.691,-4.55E-13,,
,10.693,1.05E-12,,
,10.695,2.44E-12,,
,10.697,2.44E-12,,
,10.699,1.26E-12,,
,10.701,-4.55E-13,,
,10.703,-1.64E-12,,
,10.705,-1.85E-12,,
,10.707,-1.10E-12,,
,10.709,5.11E-13,,
,10.711,2.23E-12,,
,10.713,2.87E-12,,
,10.715,2.12E-12,,
,10.717,7.26E-13,,
,10.719,-4.55E-13,,
,10.721,-8.84E-13,,
,10.723,-6.69E-13,,
,10.725,5.11E-13,,
,10.727,1.91E-12,,
,10.729,2.98E-12,,
,10.731,2.66E-12,,
,10.733,1.37E-12,,
,10.735,-2.40E-13,,
,10.737,-1.10E-12,,
,10.739,-8.84E-13,,
,10.741,1.89E-13,,
,10.743,1.69E-12,,
,10.745,3.09E-12,,
,10.747,3.20E-12,,
,10.749,2.12E-12,,
,10.751,4.04E-13,,
,10.753,-5.62E-13,,
,10.755,-8.84E-13,,
,10.757,-1.33E-13,,
,10.759,1.26E-12,,
,10.761,2.87E-12,,
,10.763,3.62E-12,,
,10.765,3.09E-12,,
,10.767,1.48E-12,,
,10.769,2.97E-13,,
,10.771,-3.47E-13,,
,10.773,2.97E-13,,
,10.775,1.37E-12,,
,10.777,2.77E-12,,
,10.779,3.95E-12,,
,10.781,3.95E-12,,
,10.783,2.77E-12,,
,10.785,1.37E-12,,
,10.787,2.97E-13,,
,10.789,5.11E-13,,
,10.791,1.37E-12,,
,10.793,3.09E-12,,
,10.795,4.48E-12,,
,10.797,5.13E-12,,
,10.799,4.16E-12,,
,10.801,2.66E-12,,
,10.803,1.37E-12,,
,10.805,1.37E-12,,
,10.807,2.23E-12,,
,10.809,3.52E-12,,
,10.811,4.91E-12,,
,10.813,5.45E-12,,
,10.815,4.91E-12,,
,10.817,3.41E-12,,
,10.819,2.23E-12,,
,10.821,1.91E-12,,
,10.823,2.66E-12,,
,10.825,4.16E-12,,
,10.827,5.77E-12,,
,10.829,6.52E-12,,
,10.831,6.20E-12,,
,10.833,4.70E-12,,
,10.835,3.20E-12,,
,10.837,2.23E-12,,
,10.839,2.34E-12,,
,10.841,3.41E-12,,
,10.843,4.81E-12,,
,10.845,5.99E-12,,
,10.847,6.20E-12,,
,10.849,5.24E-12,,
,10.851,3.84E-12,,
,10.853,2.77E-12,,
,10.855,2.66E-12,,
,10.857,3.52E-12,,
,10.859,5.13E-12,,
,10.861,6.63E-12,,
,10.863,7.27E-12,,
,10.865,6.63E-12,,
,10.867,5.13E-12,,
,10.869,3.62E-12,,
,10.871,3.09E-12,,
,10.873,3.52E-12,,
,10.875,4.91E-12,,
,10.877,6.20E-12,,
,10.879,7.06E-12,,
,10.881,6.85E-12,,
,10.883,5.66E-12,,
,10.885,4.38E-12,,
,10.887,3.52E-12,,
,10.889,3.84E-12,,
,10.891,5.02E-12,,
,10.893,6.74E-12,,
,10.895,7.81E-12,,
,10.897,8.03E-12,,
,10.899,6.74E-12,,
,10.901,5.24E-12,,
,10.903,3.84E-12,,
,10.905,3.52E-12,,
,10.907,4.16E-12,,
,10.909,5.45E-12,,
,10.911,6.85E-12,,
,10.913,7.27E-12,,
,10.915,6.63E-12,,
,10.917,5.24E-12,,
,10.919,3.95E-12,,
,10.921,3.30E-12,,
,10.923,3.62E-12,,
,10.925,4.59E-12,,
,10.927,5.99E-12,,
,10.929,6.74E-12,,
,10.931,6.42E-12,,
,10.933,4.91E-12,,
,10.935,3.20E-12,,
,10.937,2.12E-12,,
,10.939,1.91E-12,,
,10.941,2.77E-12,,
,10.943,4.05E-12,,
,10.945,5.45E-12,,
,10.947,5.56E-12,,
,10.949,4.48E-12,,
,10.951,2.66E-12,,
,10.953,1.16E-12,,
,10.955,8.34E-13,,
,10.957,1.48E-12,,
,10.959,2.77E-12,,
,10.961,3.95E-12,,
,10.963,4.38E-12,,
,10.965,3.73E-12,,
,10.967,1.91E-12,,
,10.969,5.11E-13,,
,10.971,-2.40E-13,,
,10.973,2.97E-13,,
,10.975,1.16E-12,,
,10.977,2.55E-12,,
,10.979,3.52E-12,,
,10.981,3.20E-12,,
,10.983,1.80E-12,,
,10.985,2.97E-13,,
,10.987,-3.47E-13,,
,10.989,-1.33E-13,,
,10.991,7.26E-13,,
,10.993,2.01E-12,,
,10.995,3.41E-12,,
,10.997,3.41E-12,,
,10.999,2.23E-12,,
,11.001,1.89E-13,,
,11.003,-9.92E-13,,
,11.005,-1.21E-12,,
,11.007,-6.69E-13,,
,11.009,4.04E-13,,
,11.011,1.48E-12,,
,11.013,2.23E-12,,
,11.015,1.80E-12,,
,11.017,5.11E-13,,
,11.019,-9.92E-13,,
,11.021,-1.64E-12,,
,11.023,-1.21E-12,,
,11.025,-1.33E-13,,
,11.027,1.26E-12,,
,11.029,2.01E-12,,
,11.031,1.80E-12,,
,11.033,2.97E-13,,
,11.035,-1.31E-12,,
,11.037,-2.49E-12,,
,11.039,-2.60E-12,,
,11.041,-1.64E-12,,
,11.043,-1.33E-13,,
,11.045,1.05E-12,,
,11.047,1.26E-12,,
,11.049,2.97E-13,,
,11.051,-1.10E-12,,
,11.053,-2.17E-12,,
,11.055,-2.49E-12,,
,11.057,-1.96E-12,,
,11.059,-9.92E-13,,
,11.061,5.11E-13,,
,11.063,1.37E-12,,
,11.065,8.34E-13,,
,11.067,-6.69E-13,,
,11.069,-2.07E-12,,
,11.071,-2.39E-12,,
,11.073,-2.07E-12,,
,11.075,-9.92E-13,,
,11.077,4.04E-13,,
,11.079,1.59E-12,,
,11.081,1.48E-12,,
,11.083,2.97E-13,,
,11.085,-1.42E-12,,
,11.087,-2.17E-12,,
,11.089,-1.96E-12,,
,11.091,-5.62E-13,,
,11.093,1.05E-12,,
,11.095,2.01E-12,,
,11.097,2.01E-12,,
,11.099,8.34E-13,,
,11.101,-7.77E-13,,
,11.103,-2.07E-12,,
,11.105,-2.60E-12,,
,11.107,-1.96E-12,,
,11.109,-6.69E-13,,
,11.111,8.34E-13,,
,11.113,1.59E-12,,
,11.115,7.26E-13,,
,11.117,-6.69E-13,,
,11.119,-2.17E-12,,
,11.121,-2.49E-12,,
,11.123,-2.17E-12,,
,11.125,-8.84E-13,,
,11.127,7.26E-13,,
,11.129,1.80E-12,,
,11.131,1.69E-12,,
,11.133,4.04E-13,,
,11.135,-9.92E-13,,
,11.137,-1.96E-12,,
,11.139,-1.96E-12,,
,11.141,-1.42E-12,,
,11.143,-1.33E-13,,
,11.145,8.34E-13,,
,11.147,1.26E-12,,
,11.149,2.97E-13,,
,11.151,-1.10E-12,,
,11.153,-2.28E-12,,
,11.155,-2.39E-12,,
,11.157,-1.53E-12,,
,11.159,-2.53E-14,,
,11.161,1.59E-12,,
,11.163,2.66E-12,,
,11.165,2.01E-12,,
,11.167,5.11E-13,,
,11.169,-1.31E-12,,
,11.171,-1.74E-12,,
,11.173,-1.42E-12,,
,11.175,-1.33E-13,,
,11.177,1.37E-12,,
,11.179,2.44E-12,,
,11.181,2.23E-12,,
,11.183,1.05E-12,,
,11.185,-3.47E-13,,
,11.187,-1.10E-12,,
,11.189,-9.92E-13,,
,11.191,-2.53E-14,,
,11.193,1.48E-12,,
,11.195,2.55E-12,,
,11.197,2.77E-12,,
,11.199,1.69E-12,,
,11.201,2.97E-13,,
,11.203,-1.10E-12,,
,11.205,-1.53E-12,,
,11.207,-9.92E-13,,
,11.209,2.97E-13,,
,11.211,1.48E-12,,
,11.213,2.01E-12,,
,11.215,1.16E-12,,
,11.217,-2.40E-13,,
,11.219,-1.74E-12,,
,11.221,-2.07E-12,,
,11.223,-1.53E-12,,
,11.225,-5.62E-13,,
,11.227,8.34E-13,,
,11.229,1.80E-12,,
,11.231,1.69E-12,,
,11.233,8.20E-14,,
,11.235,-1.53E-12,,
,11.237,-2.49E-12,,
,11.239,-2.28E-12,,
,11.241,-1.31E-12,,
,11.243,4.04E-13,,
,11.245,1.91E-12,,
,11.247,2.34E-12,,
,11.249,1.37E-12,,
,11.251,-1.33E-13,,
,11.253,-1.31E-12,,
,11.255,-1.53E-12,,
,11.257,-6.69E-13,,
,11.259,7.26E-13,,
,11.261,2.34E-12,,
,11.263,3.09E-12,,
,11.265,2.55E-12,,
,11.267,1.05E-12,,
,11.269,-3.47E-13,,
,11.271,-8.84E-13,,
,11.273,-5.62E-13,,
,11.275,5.11E-13,,
,11.277,2.12E-12,,
,11.279,3.20E-12,,
,11.281,3.20E-12,,
,11.283,1.80E-12,,
,11.285,4.04E-13,,
,11.287,-4.55E-13,,
,11.289,-2.40E-13,,
,11.291,6.19E-13,,
,11.293,2.23E-12,,
,11.295,3.62E-12,,
,11.297,4.27E-12,,
,11.299,3.30E-12,,
,11.301,1.80E-12,,
,11.303,5.11E-13,,
,11.305,8.20E-14,,
,11.307,8.34E-13,,
,11.309,2.23E-12,,
,11.311,3.84E-12,,
,11.313,4.48E-12,,
,11.315,3.95E-12,,
,11.317,2.66E-12,,
,11.319,1.26E-12,,
,11.321,6.19E-13,,
,11.323,7.26E-13,,
,11.325,2.01E-12,,
,11.327,3.41E-12,,
,11.329,4.59E-12,,
,11.331,4.27E-12,,
,11.333,2.98E-12,,
,11.335,1.37E-12,,
,11.337,2.97E-13,,
,11.339,4.04E-13,,
,11.341,1.05E-12,,
,11.343,2.44E-12,,
,11.345,3.52E-12,,
,11.347,3.73E-12,,
,11.349,2.55E-12,,
,11.351,1.05E-12,,
,11.353,-2.40E-13,,
,11.355,-4.55E-13,,
,11.357,8.20E-14,,
,11.359,1.48E-12,,
,11.361,2.87E-12,,
,11.363,3.52E-12,,
,11.365,2.98E-12,,
,11.367,1.48E-12,,
,11.369,8.20E-14,,
,11.371,-6.69E-13,,
,11.373,-2.40E-13,,
,11.375,8.34E-13,,
,11.377,2.55E-12,,
,11.379,3.52E-12,,
,11.381,3.20E-12,,
,11.383,1.59E-12,,
,11.385,-1.33E-13,,
,11.387,-1.10E-12,,
,11.389,-9.92E-13,,
,11.391,-2.53E-14,,
,11.393,1.37E-12,,
,11.395,2.66E-12,,
,11.397,2.98E-12,,
,11.399,2.23E-12,,
,11.401,6.19E-13,,
,11.403,-6.69E-13,,
,11.405,-1.10E-12,,
,11.407,-6.69E-13,,
,11.409,6.19E-13,,
,11.411,2.12E-12,,
,11.413,2.87E-12,,
,11.415,2.44E-12,,
,11.417,7.26E-13,,
,11.419,-4.55E-13,,
,11.421,-1.10E-12,,
,11.423,-2.40E-13,,
,11.425,1.05E-12,,
,11.427,2.87E-12,,
,11.429,3.95E-12,,
,11.431,4.05E-12,,
,11.433,2.66E-12,,
,11.435,1.16E-12,,
,11.437,-2.53E-14,,
,11.439,-2.40E-13,,
,11.441,6.19E-13,,
,11.443,2.12E-12,,
,11.445,3.84E-12,,
,11.447,4.16E-12,,
,11.449,3.41E-12,,
,11.451,1.69E-12,,
,11.453,6.19E-13,,
,11.455,6.19E-13,,
,11.457,1.59E-12,,
,11.459,2.98E-12,,
,11.461,4.27E-12,,
,11.463,5.13E-12,,
,11.465,4.70E-12,,
,11.467,3.09E-12,,
,11.469,1.59E-12,,
,11.471,9.41E-13,,
,11.473,1.48E-12,,
,11.475,2.77E-12,,
,11.477,4.16E-12,,
,11.479,5.02E-12,,
,11.481,4.81E-12,,
,11.483,3.62E-12,,
,11.485,2.34E-12,,
,11.487,1.48E-12,,
,11.489,1.91E-12,,
,11.491,2.87E-12,,
,11.493,4.81E-12,,
,11.495,6.20E-12,,
,11.497,6.63E-12,,
,11.499,5.56E-12,,
,11.501,3.84E-12,,
,11.503,2.77E-12,,
,11.505,2.44E-12,,
,11.507,3.20E-12,,
,11.509,4.48E-12,,
,11.511,5.77E-12,,
,11.513,6.42E-12,,
,11.515,5.88E-12,,
,11.517,4.70E-12,,
,11.519,3.41E-12,,
,11.521,2.87E-12,,
,11.523,3.30E-12,,
,11.525,4.48E-12,,
,11.527,5.99E-12,,
,11.529,6.95E-12,,
,11.531,6.95E-12,,
,11.533,5.88E-12,,
,11.535,4.48E-12,,
,11.537,3.41E-12,,
,11.539,3.30E-12,,
,11.541,3.95E-12,,
,11.543,5.45E-12,,
,11.545,6.74E-12,,
,11.547,7.06E-12,,
,11.549,6.09E-12,,
,11.551,4.48E-12,,
,11.553,3.30E-12,,
,11.555,3.30E-12,,
,11.557,4.16E-12,,
,11.559,5.56E-12,,
,11.561,6.74E-12,,
,11.563,7.17E-12,,
,11.565,6.52E-12,,
,11.567,4.70E-12,,
,11.569,3.30E-12,,
,11.571,2.34E-12,,
,11.573,2.66E-12,,
,11.575,3.73E-12,,
,11.577,5.34E-12,,
,11.579,6.52E-12,,
,11.581,6.31E-12,,
,11.583,5.24E-12,,
,11.585,3.52E-12,,
,11.587,2.55E-12,,
,11.589,2.55E-12,,
,11.591,3.73E-12,,
,11.593,5.45E-12,,
,11.595,6.52E-12,,
,11.597,6.85E-12,,
,11.599,5.66E-12,,
,11.601,4.05E-12,,
,11.603,2.34E-12,,
,11.605,1.80E-12,,
,11.607,2.23E-12,,
,11.609,3.62E-12,,
,11.611,4.91E-12,,
,11.613,5.45E-12,,
,11.615,5.02E-12,,
,11.617,3.73E-12,,
,11.619,2.55E-12,,
,11.621,2.01E-12,,
,11.623,2.55E-12,,
,11.625,3.84E-12,,
,11.627,5.24E-12,,
,11.629,6.09E-12,,
,11.631,5.99E-12,,
,11.633,4.70E-12,,
,11.635,3.20E-12,,
,11.637,2.01E-12,,
,11.639,1.91E-12,,
,11.641,2.55E-12,,
,11.643,3.84E-12,,
,11.645,5.02E-12,,
,11.647,5.34E-12,,
,11.649,4.48E-12,,
,11.651,2.98E-12,,
,11.653,1.69E-12,,
,11.655,1.26E-12,,
,11.657,1.69E-12,,
,11.659,2.98E-12,,
,11.661,4.48E-12,,
,11.663,5.24E-12,,
,11.665,4.59E-12,,
,11.667,2.98E-12,,
,11.669,1.37E-12,,
,11.671,7.26E-13,,
,11.673,7.26E-13,,
,11.675,1.80E-12,,
,11.677,2.87E-12,,
,11.679,3.95E-12,,
,11.681,3.62E-12,,
,11.683,2.23E-12,,
,11.685,4.04E-13,,
,11.687,-5.62E-13,,
,11.689,-5.62E-13,,
,11.691,2.97E-13,,
,11.693,1.48E-12,,
,11.695,2.87E-12,,
,11.697,2.87E-12,,
,11.699,1.69E-12,,
,11.701,-4.55E-13,,
,11.703,-1.74E-12,,
,11.705,-2.28E-12,,
,11.707,-1.53E-12,,
,11.709,-3.47E-13,,
,11.711,8.34E-13,,
,11.713,1.16E-12,,
,11.715,4.04E-13,,
,11.717,-1.21E-12,,
,11.719,-2.60E-12,,
,11.721,-3.46E-12,,
,11.723,-3.25E-12,,
,11.725,-2.28E-12,,
,11.727,-9.92E-13,,
,11.729,-1.33E-13,,
,11.731,-4.55E-13,,
,11.733,-1.85E-12,,
,11.735,-3.46E-12,,
,11.737,-4.64E-12,,
,11.739,-4.32E-12,,
,11.741,-3.68E-12,,
,11.743,-2.28E-12,,
,11.745,-1.64E-12,,
,11.747,-1.21E-12,,
,11.749,-2.17E-12,,
,11.751,-3.78E-12,,
,11.753,-5.29E-12,,
,11.755,-5.72E-12,,
,11.757,-4.96E-12,,
,11.759,-3.46E-12,,
,11.761,-2.17E-12,,
,11.763,-1.53E-12,,
,11.765,-2.17E-12,,
,11.767,-3.57E-12,,
,11.769,-4.96E-12,,
,11.771,-5.39E-12,,
,11.773,-5.18E-12,,
,11.775,-4.21E-12,,
,11.777,-3.03E-12,,
,11.779,-2.28E-12,,
,11.781,-2.28E-12,,
,11.783,-3.78E-12,,
,11.785,-4.96E-12,,
,11.787,-5.93E-12,,
,11.789,-5.72E-12,,
,11.791,-4.86E-12,,
,11.793,-3.46E-12,,
,11.795,-2.28E-12,,
,11.797,-1.85E-12,,
,11.799,-2.82E-12,,
,11.801,-4.32E-12,,
,11.803,-5.61E-12,,
,11.805,-5.93E-12,,
,11.807,-4.86E-12,,
,11.809,-3.68E-12,,
,11.811,-2.28E-12,,
,11.813,-1.74E-12,,
,11.815,-2.28E-12,,
,11.817,-3.57E-12,,
,11.819,-4.96E-12,,
,11.821,-5.39E-12,,
,11.823,-5.07E-12,,
,11.825,-3.89E-12,,
,11.827,-2.28E-12,,
,11.829,-9.92E-13,,
,11.831,-9.92E-13,,
,11.833,-1.96E-12,,
,11.835,-3.35E-12,,
,11.837,-4.43E-12,,
,11.839,-4.75E-12,,
,11.841,-3.78E-12,,
,11.843,-2.28E-12,,
,11.845,-8.84E-13,,
,11.847,-5.62E-13,,
,11.849,-1.10E-12,,
,11.851,-2.60E-12,,
,11.853,-3.68E-12,,
,11.855,-4.10E-12,,
,11.857,-3.14E-12,,
,11.859,-1.53E-12,,
,11.861,5.11E-13,,
,11.863,1.69E-12,,
,11.865,1.26E-12,,
,11.867,-2.53E-14,,
,11.869,-1.64E-12,,
,11.871,-2.17E-12,,
,11.873,-2.17E-12,,
,11.875,-9.92E-13,,
,11.877,6.19E-13,,
,11.879,1.91E-12,,
,11.881,2.01E-12,,
,11.883,7.26E-13,,
,11.885,-6.69E-13,,
,11.887,-1.42E-12,,
,11.889,-1.10E-12,,
,11.891,-2.53E-14,,
,11.893,1.80E-12,,
,11.895,3.62E-12,,
,11.897,4.38E-12,,
,11.899,3.41E-12,,
,11.901,1.59E-12,,
,11.903,1.89E-13,,
,11.905,1.89E-13,,
,11.907,8.34E-13,,
,11.909,2.44E-12,,
,11.911,3.73E-12,,
,11.913,4.81E-12,,
,11.915,4.48E-12,,
,11.917,3.62E-12,,
,11.919,2.34E-12,,
,11.921,1.69E-12,,
,11.923,1.80E-12,,
,11.925,3.09E-12,,
,11.927,4.81E-12,,
,11.929,5.99E-12,,
,11.931,5.66E-12,,
,11.933,4.16E-12,,
,11.935,2.66E-12,,
,11.937,1.69E-12,,
,11.939,1.91E-12,,
,11.941,2.66E-12,,
,11.943,4.27E-12,,
,11.945,5.34E-12,,
,11.947,5.88E-12,,
,11.949,5.02E-12,,
,11.951,3.73E-12,,
,11.953,2.44E-12,,
,11.955,2.23E-12,,
,11.957,2.87E-12,,
,11.959,4.38E-12,,
,11.961,5.99E-12,,
,11.963,6.85E-12,,
,11.965,6.31E-12,,
,11.967,4.81E-12,,
,11.969,3.41E-12,,
,11.971,2.87E-12,,
,11.973,3.20E-12,,
,11.975,4.27E-12,,
,11.977,5.34E-12,,
,11.979,6.42E-12,,
,11.981,6.31E-12,,
,11.983,5.45E-12,,
,11.985,3.73E-12,,
,11.987,2.66E-12,,
,11.989,2.44E-12,,
,11.991,3.52E-12,,
,11.993,5.24E-12,,
,11.995,6.74E-12,,
,11.997,7.17E-12,,
,11.999,6.20E-12,,
,12.001,4.59E-12,,
,12.003,3.30E-12,,
,12.005,2.77E-12,,
,12.007,3.30E-12,,
,12.009,4.38E-12,,
,12.011,5.66E-12,,
,12.013,6.09E-12,,
,12.015,5.34E-12,,
,12.017,3.73E-12,,
,12.019,2.12E-12,,
,12.021,1.37E-12,,
,12.023,1.80E-12,,
,12.025,2.98E-12,,
,12.027,4.48E-12,,
,12.029,5.66E-12,,
,12.031,5.77E-12,,
,12.033,4.59E-12,,
,12.035,2.77E-12,,
,12.037,1.59E-12,,
,12.039,1.48E-12,,
,12.041,2.23E-12,,
,12.043,3.41E-12,,
,12.045,4.27E-12,,
,12.047,4.27E-12,,
,12.049,3.20E-12,,
,12.051,1.37E-12,,
,12.053,1.89E-13,,
,12.055,-3.47E-13,,
,12.057,5.11E-13,,
,12.059,1.80E-12,,
,12.061,3.20E-12,,
,12.063,3.84E-12,,
,12.065,3.09E-12,,
,12.067,1.59E-12,,
,12.069,-1.33E-13,,
,12.071,-9.92E-13,,
,12.073,-7.77E-13,,
,12.075,4.04E-13,,
,12.077,1.69E-12,,
,12.079,2.66E-12,,
,12.081,2.44E-12,,
,12.083,1.05E-12,,
,12.085,-6.69E-13,,
,12.087,-1.74E-12,,
,12.089,-1.64E-12,,
,12.091,-7.77E-13,,
,12.093,6.19E-13,,
,12.095,1.91E-12,,
,12.097,2.34E-12,,
,12.099,1.48E-12,,
,12.101,-1.33E-13,,
,12.103,-1.42E-12,,
,12.105,-1.96E-12,,
,12.107,-1.31E-12,,
,12.109,-3.47E-13,,
,12.111,1.05E-12,,
,12.113,1.80E-12,,
,12.115,1.69E-12,,
,12.117,6.19E-13,,
,12.119,-5.62E-13,,
,12.121,-1.21E-12,,
,12.123,-7.77E-13,,
,12.125,6.19E-13,,
,12.127,2.34E-12,,
,12.129,3.41E-12,,
,12.131,3.30E-12,,
,12.133,2.23E-12,,
,12.135,9.41E-13,,
,12.137,8.20E-14,,
,12.139,1.89E-13,,
,12.141,1.16E-12,,
,12.143,2.66E-12,,
,12.145,4.05E-12,,
,12.147,4.38E-12,,
,12.149,3.41E-12,,
,12.151,2.12E-12,,
,12.153,8.34E-13,,
,12.155,5.11E-13,,
,12.157,8.34E-13,,
,12.159,2.34E-12,,
,12.161,4.05E-12,,
,12.163,4.91E-12,,
,12.165,4.38E-12,,
,12.167,2.87E-12,,
,12.169,1.48E-12,,
,12.171,8.34E-13,,
,12.173,1.26E-12,,
,12.175,2.34E-12,,
,12.177,3.73E-12,,
,12.179,4.70E-12,,
,12.181,4.70E-12,,
,12.183,3.73E-12,,
,12.185,2.12E-12,,
,12.187,1.16E-12,,
,12.189,1.05E-12,,
,12.191,2.23E-12,,
,12.193,3.73E-12,,
,12.195,5.24E-12,,
,12.197,5.66E-12,,
,12.199,4.91E-12,,
,12.201,3.30E-12,,
,12.203,2.01E-12,,
,12.205,1.80E-12,,
,12.207,2.55E-12,,
,12.209,3.84E-12,,
,12.211,5.34E-12,,
,12.213,6.31E-12,,
,12.215,5.99E-12,,
,12.217,4.59E-12,,
,12.219,3.09E-12,,
,12.221,2.55E-12,,
,12.223,2.87E-12,,
,12.225,4.16E-12,,
,12.227,5.66E-12,,
,12.229,6.85E-12,,
,12.231,6.85E-12,,
,12.233,5.88E-12,,
,12.235,4.59E-12,,
,12.237,3.52E-12,,
,12.239,3.41E-12,,
,12.241,4.16E-12,,
,12.243,5.56E-12,,
,12.245,6.85E-12,,
,12.247,7.27E-12,,
,12.249,6.42E-12,,
,12.251,4.81E-12,,
,12.253,3.73E-12,,
,12.255,3.62E-12,,
,12.257,4.48E-12,,
,12.259,5.56E-12,,
,12.261,6.95E-12,,
,12.263,7.70E-12,,
,12.265,7.38E-12,,
,12.267,6.20E-12,,
,12.269,4.81E-12,,
,12.271,4.16E-12,,
,12.273,4.59E-12,,
,12.275,5.88E-12,,
,12.277,7.49E-12,,
,12.279,8.67E-12,,
,12.281,8.56E-12,,
,12.283,7.49E-12,,
,12.285,5.88E-12,,
,12.287,5.02E-12,,
,12.289,4.91E-12,,
,12.291,5.88E-12,,
,12.293,7.38E-12,,
,12.295,8.67E-12,,
,12.297,8.89E-12,,
,12.299,8.24E-12,,
,12.301,6.85E-12,,
,12.303,5.56E-12,,
,12.305,5.02E-12,,
,12.307,5.77E-12,,
,12.309,7.27E-12,,
,12.311,8.78E-12,,
,12.313,9.53E-12,,
,12.315,9.21E-12,,
,12.317,7.92E-12,,
,12.319,6.52E-12,,
,12.321,5.66E-12,,
,12.323,6.09E-12,,
,12.325,7.38E-12,,
,12.327,9.10E-12,,
,12.329,1.03E-11,,
,12.331,1.04E-11,,
,12.333,9.31E-12,,
,12.335,7.81E-12,,
,12.337,6.74E-12,,
,12.339,6.74E-12,,
,12.341,7.49E-12,,
,12.343,8.89E-12,,
,12.345,1.03E-11,,
,12.347,1.07E-11,,
,12.349,9.64E-12,,
,12.351,7.92E-12,,
,12.353,6.42E-12,,
,12.355,6.31E-12,,
,12.357,6.95E-12,,
,12.359,8.46E-12,,
,12.361,9.96E-12,,
,12.363,1.07E-11,,
,12.365,1.07E-11,,
,12.367,9.42E-12,,
,12.369,8.24E-12,,
,12.371,7.38E-12,,
,12.373,7.60E-12,,
,12.375,8.67E-12,,
,12.377,9.96E-12,,
,12.379,1.12E-11,,
,12.381,1.11E-11,,
,12.383,9.85E-12,,
,12.385,8.24E-12,,
,12.387,7.49E-12,,
,12.389,7.92E-12,,
,12.391,8.99E-12,,
,12.393,1.05E-11,,
,12.395,1.17E-11,,
,12.397,1.18E-11,,
,12.399,1.09E-11,,
,12.401,9.21E-12,,
,12.403,8.13E-12,,
,12.405,7.60E-12,,
,12.407,8.35E-12,,
,12.409,9.31E-12,,
,12.411,1.06E-11,,
,12.413,1.11E-11,,
,12.415,1.06E-11,,
,12.417,9.42E-12,,
,12.419,8.03E-12,,
,12.421,7.60E-12,,
,12.423,7.70E-12,,
,12.425,8.89E-12,,
,12.427,1.04E-11,,
,12.429,1.17E-11,,
,12.431,1.19E-11,,
,12.433,1.08E-11,,
,12.435,9.21E-12,,
,12.437,7.92E-12,,
,12.439,7.81E-12,,
,12.441,8.67E-12,,
,12.443,1.04E-11,,
,12.445,1.15E-11,,
,12.447,1.18E-11,,
,12.449,1.07E-11,,
,12.451,9.42E-12,,
,12.453,8.24E-12,,
,12.455,7.81E-12,,
,12.457,8.35E-12,,
,12.459,9.64E-12,,
,12.461,1.10E-11,,
,12.463,1.18E-11,,
,12.465,1.14E-11,,
,12.467,9.96E-12,,
,12.469,8.67E-12,,
,12.471,7.81E-12,,
,12.473,8.24E-12,,
,12.475,9.21E-12,,
,12.477,1.09E-11,,
,12.479,1.21E-11,,
,12.481,1.22E-11,,
,12.483,1.08E-11,,
,12.485,9.21E-12,,
,12.487,8.35E-12,,
,12.489,8.35E-12,,
,12.491,9.21E-12,,
,12.493,1.04E-11,,
,12.495,1.19E-11,,
,12.497,1.22E-11,,
,12.499,1.14E-11,,
,12.501,9.85E-12,,
,12.503,8.56E-12,,
,12.505,8.24E-12,,
,12.507,8.67E-12,,
,12.509,9.96E-12,,
,12.511,1.11E-11,,
,12.513,1.19E-11,,
,12.515,1.15E-11,,
,12.517,1.02E-11,,
,12.519,8.78E-12,,
,12.521,8.03E-12,,
,12.523,8.13E-12,,
,12.525,8.99E-12,,
,12.527,1.03E-11,,
,12.529,1.12E-11,,
,12.531,1.10E-11,,
,12.533,9.74E-12,,
,12.535,8.13E-12,,
,12.537,7.17E-12,,
,12.539,6.85E-12,,
,12.541,7.49E-12,,
,12.543,8.56E-12,,
,12.545,9.85E-12,,
,12.547,9.96E-12,,
,12.549,8.99E-12,,
,12.551,7.27E-12,,
,12.553,6.09E-12,,
,12.555,5.56E-12,,
,12.557,5.88E-12,,
,12.559,7.06E-12,,
,12.561,8.24E-12,,
,12.563,8.99E-12,,
,12.565,8.13E-12,,
,12.567,6.52E-12,,
,12.569,4.59E-12,,
,12.571,3.73E-12,,
,12.573,3.84E-12,,
,12.575,5.02E-12,,
,12.577,6.42E-12,,
,12.579,7.49E-12,,
,12.581,7.27E-12,,
,12.583,5.77E-12,,
,12.585,3.95E-12,,
,12.587,2.66E-12,,
,12.589,2.34E-12,,
,12.591,2.98E-12,,
,12.593,4.27E-12,,
,12.595,5.66E-12,,
,12.597,6.09E-12,,
,12.599,5.24E-12,,
,12.601,3.52E-12,,
,12.603,1.91E-12,,
,12.605,1.37E-12,,
,12.607,1.91E-12,,
,12.609,3.52E-12,,
,12.611,5.02E-12,,
,12.613,5.77E-12,,
,12.615,5.02E-12,,
,12.617,3.41E-12,,
,12.619,1.91E-12,,
,12.621,1.05E-12,,
,12.623,1.26E-12,,
,12.625,2.34E-12,,
,12.627,3.95E-12,,
,12.629,5.02E-12,,
,12.631,5.02E-12,,
,12.633,3.73E-12,,
,12.635,2.23E-12,,
,12.637,1.26E-12,,
,12.639,1.37E-12,,
,12.641,2.23E-12,,
,12.643,3.73E-12,,
,12.645,5.02E-12,,
,12.647,5.56E-12,,
,12.649,4.70E-12,,
,12.651,2.98E-12,,
,12.653,1.59E-12,,
,12.655,1.05E-12,,
,12.657,1.80E-12,,
,12.659,3.20E-12,,
,12.661,4.59E-12,,
,12.663,5.56E-12,,
,12.665,5.13E-12,,
,12.667,3.95E-12,,
,12.669,2.34E-12,,
,12.671,1.69E-12,,
,12.673,2.12E-12,,
,12.675,3.52E-12,,
,12.677,5.13E-12,,
,12.679,6.20E-12,,
,12.681,6.20E-12,,
,12.683,5.24E-12,,
,12.685,3.73E-12,,
,12.687,2.77E-12,,
,12.689,2.55E-12,,
,12.691,3.52E-12,,
,12.693,5.02E-12,,
,12.695,6.63E-12,,
,12.697,7.27E-12,,
,12.699,6.52E-12,,
,12.701,5.13E-12,,
,12.703,3.84E-12,,
,12.705,3.52E-12,,
,12.707,3.95E-12,,
,12.709,5.45E-12,,
,12.711,6.95E-12,,
,12.713,7.92E-12,,
,12.715,7.49E-12,,
,12.717,6.20E-12,,
,12.719,5.02E-12,,
,12.721,4.38E-12,,
,12.723,5.02E-12,,
,12.725,5.88E-12,,
,12.727,7.70E-12,,
,12.729,8.99E-12,,
,12.731,9.42E-12,,
,12.733,8.35E-12,,
,12.735,6.85E-12,,
,12.737,6.09E-12,,
,12.739,6.20E-12,,
,12.741,7.27E-12,,
,12.743,8.78E-12,,
,12.745,1.03E-11,,
,12.747,1.10E-11,,
,12.749,1.04E-11,,
,12.751,8.99E-12,,
,12.753,7.81E-12,,
,12.755,7.60E-12,,
,12.757,8.56E-12,,
,12.759,1.01E-11,,
,12.761,1.20E-11,,
,12.763,1.31E-11,,
,12.765,1.29E-11,,
,12.767,1.18E-11,,
,12.769,1.04E-11,,
,12.771,1.01E-11,,
,12.773,1.03E-11,,
,12.775,1.17E-11,,
,12.777,1.31E-11,,
,12.779,1.45E-11,,
,12.781,1.45E-11,,
,12.783,1.34E-11,,
,12.785,1.19E-11,,
,12.787,1.10E-11,,
,12.789,1.11E-11,,
,12.791,1.22E-11,,
,12.793,1.40E-11,,
,12.795,1.58E-11,,
,12.797,1.64E-11,,
,12.799,1.58E-11,,
,12.801,1.44E-11,,
,12.803,1.33E-11,,
,12.805,1.31E-11,,
,12.807,1.38E-11,,
,12.809,1.51E-11,,
,12.811,1.67E-11,,
,12.813,1.78E-11,,
,12.815,1.78E-11,,
,12.817,1.66E-11,,
,12.819,1.52E-11,,
,12.821,1.45E-11,,
,12.823,1.46E-11,,
,12.825,1.59E-11,,
,12.827,1.74E-11,,
,12.829,1.87E-11,,
,12.831,1.83E-11,,
,12.833,1.70E-11,,
,12.835,1.52E-11,,
,12.837,1.41E-11,,
,12.839,1.40E-11,,
,12.841,1.49E-11,,
,12.843,1.61E-11,,
,12.845,1.75E-11,,
,12.847,1.78E-11,,
,12.849,1.73E-11,,
,12.851,1.55E-11,,
,12.853,1.44E-11,,
,12.855,1.40E-11,,
,12.857,1.46E-11,,
,12.859,1.59E-11,,
,12.861,1.69E-11,,
,12.863,1.75E-11,,
,12.865,1.67E-11,,
,12.867,1.51E-11,,
,12.869,1.35E-11,,
,12.871,1.28E-11,,
,12.873,1.31E-11,,
,12.875,1.44E-11,,
,12.877,1.58E-11,,
,12.879,1.68E-11,,
,12.881,1.65E-11,,
,12.883,1.52E-11,,
,12.885,1.37E-11,,
,12.887,1.26E-11,,
,12.889,1.22E-11,,
,12.891,1.26E-11,,
,12.893,1.39E-11,,
,12.895,1.51E-11,,
,12.897,1.54E-11,,
,12.899,1.45E-11,,
,12.901,1.30E-11,,
,12.903,1.14E-11,,
,12.905,1.08E-11,,
,12.907,1.11E-11,,
,12.909,1.24E-11,,
,12.911,1.38E-11,,
,12.913,1.47E-11,,
,12.915,1.41E-11,,
,12.917,1.25E-11,,
,12.919,1.07E-11,,
,12.921,9.64E-12,,
,12.923,9.85E-12,,
,12.925,1.09E-11,,
,12.927,1.26E-11,,
,12.929,1.36E-11,,
,12.931,1.35E-11,,
,12.933,1.22E-11,,
,12.935,1.06E-11,,
,12.937,9.53E-12,,
,12.939,9.31E-12,,
,12.941,1.02E-11,,
,12.943,1.18E-11,,
,12.945,1.31E-11,,
,12.947,1.34E-11,,
,12.949,1.23E-11,,
,12.951,1.08E-11,,
,12.953,9.31E-12,,
,12.955,8.78E-12,,
,12.957,8.99E-12,,
,12.959,1.02E-11,,
,12.961,1.16E-11,,
,12.963,1.26E-11,,
,12.965,1.23E-11,,
,12.967,1.09E-11,,
,12.969,9.31E-12,,
,12.971,8.56E-12,,
,12.973,8.89E-12,,
,12.975,9.96E-12,,
,12.977,1.16E-11,,
,12.979,1.28E-11,,
,12.981,1.28E-11,,
