5/3/2019, 3:09:56 PM ,,,
 Current Sensitivity ,1.00E-09,,,
 This file comes from It only measurement ,0.00E+00,,,
 Sampling rate ,500,,,
 Number of samples per channel ,-1,,,
 No filter from Labview , , , ,
 , ,,,
 ***End_of_Header*** ,,,,
 , Time , Current , Filtered Current , 
,-0.000995,1.24E-12,,
,0.001005,2.81E-12,,
,0.003005,4.27E-12,,
,0.005005,4.81E-12,,
,0.007005,4.91E-12,,
,0.009005,4.81E-12,,
,0.011005,4.16E-12,,
,0.013005,3.30E-12,,
,0.015005,2.77E-12,,
,0.017005,2.66E-12,,
,0.019005,2.98E-12,,
,0.021005,3.20E-12,,
,0.023005,3.30E-12,,
,0.025005,3.20E-12,,
,0.027005,2.77E-12,,
,0.029005,1.80E-12,,
,0.031005,1.05E-12,,
,0.033005,7.26E-13,,
,0.035005,1.05E-12,,
,0.037005,1.37E-12,,
,0.039005,1.59E-12,,
,0.041005,1.37E-12,,
,0.043005,7.26E-13,,
,0.045005,8.20E-14,,
,0.047005,-7.77E-13,,
,0.049005,-1.21E-12,,
,0.051005,-1.53E-12,,
,0.053005,-1.21E-12,,
,0.055005,-9.92E-13,,
,0.057005,-1.21E-12,,
,0.059005,-1.64E-12,,
,0.061005,-2.49E-12,,
,0.063005,-2.92E-12,,
,0.065005,-3.35E-12,,
,0.067005,-3.46E-12,,
,0.069005,-3.35E-12,,
,0.071005,-3.14E-12,,
,0.073005,-2.71E-12,,
,0.075005,-2.92E-12,,
,0.077005,-3.57E-12,,
,0.079005,-4.32E-12,,
,0.081005,-4.86E-12,,
,0.083005,-4.86E-12,,
,0.085005,-4.86E-12,,
,0.087005,-4.32E-12,,
,0.089005,-4.00E-12,,
,0.091005,-3.68E-12,,
,0.093005,-4.00E-12,,
,0.095005,-4.53E-12,,
,0.097005,-5.18E-12,,
,0.099005,-5.50E-12,,
,0.101005,-5.50E-12,,
,0.103005,-5.29E-12,,
,0.105005,-4.86E-12,,
,0.107005,-4.64E-12,,
,0.109005,-4.75E-12,,
,0.111005,-5.50E-12,,
,0.113005,-6.14E-12,,
,0.115005,-6.68E-12,,
,0.117005,-6.57E-12,,
,0.119005,-6.47E-12,,
,0.121005,-5.82E-12,,
,0.123005,-5.39E-12,,
,0.125005,-5.18E-12,,
,0.127005,-5.72E-12,,
,0.129005,-6.36E-12,,
,0.131005,-6.68E-12,,
,0.133005,-6.68E-12,,
,0.135005,-6.25E-12,,
,0.137005,-5.93E-12,,
,0.139005,-5.61E-12,,
,0.141005,-5.93E-12,,
,0.143005,-6.25E-12,,
,0.145005,-7.00E-12,,
,0.147005,-7.65E-12,,
,0.149005,-8.08E-12,,
,0.151005,-8.08E-12,,
,0.153005,-7.54E-12,,
,0.155005,-7.43E-12,,
,0.157005,-7.33E-12,,
,0.159005,-7.75E-12,,
,0.161005,-8.08E-12,,
,0.163005,-8.61E-12,,
,0.165005,-8.94E-12,,
,0.167005,-9.15E-12,,
,0.169005,-8.94E-12,,
,0.171005,-8.61E-12,,
,0.173005,-8.18E-12,,
,0.175005,-8.40E-12,,
,0.177005,-9.04E-12,,
,0.179005,-9.69E-12,,
,0.181005,-1.00E-11,,
,0.183005,-1.00E-11,,
,0.185005,-1.00E-11,,
,0.187005,-9.79E-12,,
,0.189005,-9.47E-12,,
,0.191005,-9.26E-12,,
,0.193005,-9.37E-12,,
,0.195005,-9.79E-12,,
,0.197005,-1.01E-11,,
,0.199005,-1.02E-11,,
,0.201005,-1.00E-11,,
,0.203005,-9.79E-12,,
,0.205005,-9.37E-12,,
,0.207005,-9.15E-12,,
,0.209005,-9.26E-12,,
,0.211005,-9.79E-12,,
,0.213005,-1.03E-11,,
,0.215005,-1.07E-11,,
,0.217005,-1.05E-11,,
,0.219005,-1.02E-11,,
,0.221005,-9.69E-12,,
,0.223005,-9.26E-12,,
,0.225005,-9.15E-12,,
,0.227005,-9.37E-12,,
,0.229005,-1.01E-11,,
,0.231005,-1.03E-11,,
,0.233005,-1.02E-11,,
,0.235005,-9.79E-12,,
,0.237005,-9.47E-12,,
,0.239005,-9.15E-12,,
,0.241005,-8.94E-12,,
,0.243005,-9.04E-12,,
,0.245005,-9.69E-12,,
,0.247005,-1.01E-11,,
,0.249005,-1.04E-11,,
,0.251005,-1.02E-11,,
,0.253005,-9.69E-12,,
,0.255005,-9.15E-12,,
,0.257005,-8.83E-12,,
,0.259005,-8.83E-12,,
,0.261005,-9.15E-12,,
,0.263005,-9.58E-12,,
,0.265005,-9.79E-12,,
,0.267005,-9.69E-12,,
,0.269005,-8.94E-12,,
,0.271005,-8.29E-12,,
,0.273005,-7.65E-12,,
,0.275005,-7.75E-12,,
,0.277005,-7.97E-12,,
,0.279005,-8.29E-12,,
,0.281005,-8.51E-12,,
,0.283005,-8.61E-12,,
,0.285005,-8.40E-12,,
,0.287005,-7.97E-12,,
,0.289005,-7.33E-12,,
,0.291005,-6.79E-12,,
,0.293005,-6.90E-12,,
,0.295005,-7.22E-12,,
,0.297005,-7.75E-12,,
,0.299005,-7.54E-12,,
,0.301005,-7.22E-12,,
,0.303005,-6.68E-12,,
,0.305005,-5.93E-12,,
,0.307005,-5.29E-12,,
,0.309005,-4.96E-12,,
,0.311005,-5.18E-12,,
,0.313005,-5.82E-12,,
,0.315005,-6.04E-12,,
,0.317005,-6.04E-12,,
,0.319005,-5.50E-12,,
,0.321005,-4.75E-12,,
,0.323005,-4.21E-12,,
,0.325005,-3.89E-12,,
,0.327005,-4.21E-12,,
,0.329005,-4.43E-12,,
,0.331005,-4.53E-12,,
,0.333005,-4.21E-12,,
,0.335005,-3.57E-12,,
,0.337005,-2.60E-12,,
,0.339005,-1.74E-12,,
,0.341005,-1.10E-12,,
,0.343005,-1.10E-12,,
,0.345005,-1.10E-12,,
,0.347005,-1.31E-12,,
,0.349005,-1.31E-12,,
,0.351005,-1.10E-12,,
,0.353005,-3.47E-13,,
,0.355005,6.19E-13,,
,0.357005,1.59E-12,,
,0.359005,2.01E-12,,
,0.361005,2.23E-12,,
,0.363005,1.91E-12,,
,0.365005,2.12E-12,,
,0.367005,2.77E-12,,
,0.369005,3.95E-12,,
,0.371005,5.13E-12,,
,0.373005,6.09E-12,,
,0.375005,6.74E-12,,
,0.377005,6.95E-12,,
,0.379005,6.85E-12,,
,0.381005,6.85E-12,,
,0.383005,7.06E-12,,
,0.385005,7.81E-12,,
,0.387005,8.99E-12,,
,0.389005,1.02E-11,,
,0.391005,1.11E-11,,
,0.393005,1.16E-11,,
,0.395005,1.18E-11,,
,0.397005,1.18E-11,,
,0.399005,1.20E-11,,
,0.401005,1.28E-11,,
,0.403005,1.37E-11,,
,0.405005,1.50E-11,,
,0.407005,1.58E-11,,
,0.409005,1.61E-11,,
,0.411005,1.60E-11,,
,0.413005,1.60E-11,,
,0.415005,1.61E-11,,
,0.417005,1.63E-11,,
,0.419005,1.69E-11,,
,0.421005,1.78E-11,,
,0.423005,1.88E-11,,
,0.425005,1.90E-11,,
,0.427005,1.92E-11,,
,0.429005,1.90E-11,,
,0.431005,1.89E-11,,
,0.433005,1.90E-11,,
,0.435005,1.92E-11,,
,0.437005,1.98E-11,,
,0.439005,2.05E-11,,
,0.441005,2.08E-11,,
,0.443005,2.07E-11,,
,0.445005,1.98E-11,,
,0.447005,1.93E-11,,
,0.449005,1.90E-11,,
,0.451005,1.89E-11,,
,0.453005,1.92E-11,,
,0.455005,1.93E-11,,
,0.457005,1.96E-11,,
,0.459005,1.92E-11,,
,0.461005,1.87E-11,,
,0.463005,1.79E-11,,
,0.465005,1.73E-11,,
,0.467005,1.67E-11,,
,0.469005,1.67E-11,,
,0.471005,1.67E-11,,
,0.473005,1.66E-11,,
,0.475005,1.59E-11,,
,0.477005,1.47E-11,,
,0.479005,1.33E-11,,
,0.481005,1.18E-11,,
,0.483005,1.06E-11,,
,0.485005,9.85E-12,,
,0.487005,9.31E-12,,
,0.489005,8.56E-12,,
,0.491005,7.38E-12,,
,0.493005,5.99E-12,,
,0.495005,4.27E-12,,
,0.497005,2.77E-12,,
,0.499005,9.41E-13,,
,0.501005,-2.53E-14,,
,0.503005,-1.10E-12,,
,0.505005,-1.53E-12,,
,0.507005,-2.49E-12,,
,0.509005,-3.68E-12,,
,0.511005,-5.39E-12,,
,0.513005,-7.11E-12,,
,0.515005,-8.51E-12,,
,0.517005,-9.47E-12,,
,0.519005,-1.00E-11,,
,0.521005,-1.04E-11,,
,0.523005,-1.09E-11,,
,0.525005,-1.15E-11,,
,0.527005,-1.24E-11,,
,0.529005,-1.34E-11,,
,0.531005,-1.43E-11,,
,0.533005,-1.47E-11,,
,0.535005,-1.48E-11,,
,0.537005,-1.46E-11,,
,0.539005,-1.46E-11,,
,0.541005,-1.47E-11,,
,0.543005,-1.52E-11,,
,0.545005,-1.58E-11,,
,0.547005,-1.63E-11,,
,0.549005,-1.68E-11,,
,0.551005,-1.67E-11,,
,0.553005,-1.63E-11,,
,0.555005,-1.58E-11,,
,0.557005,-1.56E-11,,
,0.559005,-1.55E-11,,
,0.561005,-1.60E-11,,
,0.563005,-1.63E-11,,
,0.565005,-1.69E-11,,
,0.567005,-1.67E-11,,
,0.569005,-1.65E-11,,
,0.571005,-1.59E-11,,
,0.573005,-1.57E-11,,
,0.575005,-1.57E-11,,
,0.577005,-1.59E-11,,
,0.579005,-1.65E-11,,
,0.581005,-1.69E-11,,
,0.583005,-1.70E-11,,
,0.585005,-1.67E-11,,
,0.587005,-1.60E-11,,
,0.589005,-1.57E-11,,
,0.591005,-1.54E-11,,
,0.593005,-1.57E-11,,
,0.595005,-1.59E-11,,
,0.597005,-1.62E-11,,
,0.599005,-1.59E-11,,
,0.601005,-1.56E-11,,
,0.603005,-1.51E-11,,
,0.605005,-1.46E-11,,
,0.607005,-1.43E-11,,
,0.609005,-1.44E-11,,
,0.611005,-1.47E-11,,
,0.613005,-1.51E-11,,
,0.615005,-1.49E-11,,
,0.617005,-1.48E-11,,
,0.619005,-1.44E-11,,
,0.621005,-1.39E-11,,
,0.623005,-1.33E-11,,
,0.625005,-1.31E-11,,
,0.627005,-1.34E-11,,
,0.629005,-1.39E-11,,
,0.631005,-1.42E-11,,
,0.633005,-1.41E-11,,
,0.635005,-1.33E-11,,
,0.637005,-1.24E-11,,
,0.639005,-1.14E-11,,
,0.641005,-1.12E-11,,
,0.643005,-1.12E-11,,
,0.645005,-1.16E-11,,
,0.647005,-1.18E-11,,
,0.649005,-1.19E-11,,
,0.651005,-1.15E-11,,
,0.653005,-1.07E-11,,
,0.655005,-9.79E-12,,
,0.657005,-9.15E-12,,
,0.659005,-8.94E-12,,
,0.661005,-9.15E-12,,
,0.663005,-9.47E-12,,
,0.665005,-9.69E-12,,
,0.667005,-9.26E-12,,
,0.669005,-8.29E-12,,
,0.671005,-7.22E-12,,
,0.673005,-6.36E-12,,
,0.675005,-6.14E-12,,
,0.677005,-6.25E-12,,
,0.679005,-6.79E-12,,
,0.681005,-7.00E-12,,
,0.683005,-7.00E-12,,
,0.685005,-6.36E-12,,
,0.687005,-5.82E-12,,
,0.689005,-4.96E-12,,
,0.691005,-4.53E-12,,
,0.693005,-4.21E-12,,
,0.695005,-4.53E-12,,
,0.697005,-4.75E-12,,
,0.699005,-4.86E-12,,
,0.701005,-4.32E-12,,
,0.703005,-3.46E-12,,
,0.705005,-2.60E-12,,
,0.707005,-2.07E-12,,
,0.709005,-1.96E-12,,
,0.711005,-2.17E-12,,
,0.713005,-2.60E-12,,
,0.715005,-2.82E-12,,
,0.717005,-2.71E-12,,
,0.719005,-2.17E-12,,
,0.721005,-1.64E-12,,
,0.723005,-8.84E-13,,
,0.725005,-4.55E-13,,
,0.727005,-4.55E-13,,
,0.729005,-4.55E-13,,
,0.731005,-4.55E-13,,
,0.733005,-1.33E-13,,
,0.735005,1.89E-13,,
,0.737005,9.41E-13,,
,0.739005,1.69E-12,,
,0.741005,2.23E-12,,
,0.743005,2.01E-12,,
,0.745005,1.59E-12,,
,0.747005,9.41E-13,,
,0.749005,8.34E-13,,
,0.751005,1.16E-12,,
,0.753005,1.91E-12,,
,0.755005,2.66E-12,,
,0.757005,3.09E-12,,
,0.759005,3.20E-12,,
,0.761005,2.77E-12,,
,0.763005,2.55E-12,,
,0.765005,2.34E-12,,
,0.767005,2.77E-12,,
,0.769005,3.30E-12,,
,0.771005,4.16E-12,,
,0.773005,4.59E-12,,
,0.775005,4.91E-12,,
,0.777005,4.70E-12,,
,0.779005,4.48E-12,,
,0.781005,4.05E-12,,
,0.783005,3.84E-12,,
,0.785005,4.05E-12,,
,0.787005,4.81E-12,,
,0.789005,5.88E-12,,
,0.791005,6.42E-12,,
,0.793005,6.63E-12,,
,0.795005,6.42E-12,,
,0.797005,6.52E-12,,
,0.799005,6.63E-12,,
,0.801005,7.38E-12,,
,0.803005,8.35E-12,,
,0.805005,9.31E-12,,
,0.807005,9.74E-12,,
,0.809005,9.85E-12,,
,0.811005,9.53E-12,,
,0.813005,9.31E-12,,
,0.815005,9.21E-12,,
,0.817005,9.42E-12,,
,0.819005,9.85E-12,,
,0.821005,1.05E-11,,
,0.823005,1.11E-11,,
,0.825005,1.15E-11,,
,0.827005,1.11E-11,,
,0.829005,1.07E-11,,
,0.831005,1.03E-11,,
,0.833005,1.02E-11,,
,0.835005,1.05E-11,,
,0.837005,1.10E-11,,
,0.839005,1.16E-11,,
,0.841005,1.17E-11,,
,0.843005,1.12E-11,,
,0.845005,1.06E-11,,
,0.847005,1.02E-11,,
,0.849005,1.01E-11,,
,0.851005,1.02E-11,,
,0.853005,1.06E-11,,
,0.855005,1.11E-11,,
,0.857005,1.16E-11,,
,0.859005,1.16E-11,,
,0.861005,1.11E-11,,
,0.863005,1.07E-11,,
,0.865005,1.01E-11,,
,0.867005,1.01E-11,,
,0.869005,1.05E-11,,
,0.871005,1.14E-11,,
,0.873005,1.17E-11,,
,0.875005,1.16E-11,,
,0.877005,1.10E-11,,
,0.879005,1.07E-11,,
,0.881005,1.05E-11,,
,0.883005,1.07E-11,,
,0.885005,1.10E-11,,
,0.887005,1.15E-11,,
,0.889005,1.18E-11,,
,0.891005,1.20E-11,,
,0.893005,1.18E-11,,
,0.895005,1.16E-11,,
,0.897005,1.12E-11,,
,0.899005,1.15E-11,,
,0.901005,1.18E-11,,
,0.903005,1.24E-11,,
,0.905005,1.31E-11,,
,0.907005,1.35E-11,,
,0.909005,1.36E-11,,
,0.911005,1.32E-11,,
,0.913005,1.28E-11,,
,0.915005,1.25E-11,,
,0.917005,1.26E-11,,
,0.919005,1.30E-11,,
,0.921005,1.35E-11,,
,0.923005,1.44E-11,,
,0.925005,1.47E-11,,
,0.927005,1.46E-11,,
,0.929005,1.43E-11,,
,0.931005,1.43E-11,,
,0.933005,1.43E-11,,
,0.935005,1.45E-11,,
,0.937005,1.49E-11,,
,0.939005,1.56E-11,,
,0.941005,1.60E-11,,
,0.943005,1.59E-11,,
,0.945005,1.54E-11,,
,0.947005,1.50E-11,,
,0.949005,1.47E-11,,
,0.951005,1.47E-11,,
,0.953005,1.50E-11,,
,0.955005,1.56E-11,,
,0.957005,1.61E-11,,
,0.959005,1.60E-11,,
,0.961005,1.56E-11,,
,0.963005,1.51E-11,,
,0.965005,1.50E-11,,
,0.967005,1.52E-11,,
,0.969005,1.58E-11,,
,0.971005,1.63E-11,,
,0.973005,1.64E-11,,
,0.975005,1.65E-11,,
,0.977005,1.63E-11,,
,0.979005,1.62E-11,,
,0.981005,1.56E-11,,
,0.983005,1.55E-11,,
,0.985005,1.56E-11,,
,0.987005,1.63E-11,,
,0.989005,1.67E-11,,
,0.991005,1.70E-11,,
,0.993005,1.68E-11,,
,0.995005,1.66E-11,,
,0.997005,1.59E-11,,
,0.999005,1.58E-11,,
,1.001005,1.59E-11,,
,1.003005,1.67E-11,,
,1.005005,1.75E-11,,
,1.007005,1.79E-11,,
,1.009005,1.80E-11,,
,1.011005,1.76E-11,,
,1.013005,1.70E-11,,
,1.015005,1.65E-11,,
,1.017005,1.65E-11,,
,1.019005,1.70E-11,,
,1.021005,1.79E-11,,
,1.023005,1.85E-11,,
,1.025005,1.89E-11,,
,1.027005,1.89E-11,,
,1.029005,1.85E-11,,
,1.031005,1.84E-11,,
,1.033005,1.83E-11,,
,1.035005,1.89E-11,,
,1.037005,1.94E-11,,
,1.039005,2.01E-11,,
,1.041005,2.04E-11,,
,1.043005,2.03E-11,,
,1.045005,1.97E-11,,
,1.047005,1.93E-11,,
,1.049005,1.90E-11,,
,1.051005,1.93E-11,,
,1.053005,1.97E-11,,
,1.055005,2.03E-11,,
,1.057005,2.05E-11,,
,1.059005,2.05E-11,,
,1.061005,2.04E-11,,
,1.063005,2.01E-11,,
,1.065005,1.97E-11,,
,1.067005,1.98E-11,,
,1.069005,2.03E-11,,
,1.071005,2.07E-11,,
,1.073005,2.10E-11,,
,1.075005,2.10E-11,,
,1.077005,2.07E-11,,
,1.079005,2.01E-11,,
,1.081005,1.94E-11,,
,1.083005,1.92E-11,,
,1.085005,1.94E-11,,
,1.087005,1.98E-11,,
,1.089005,2.02E-11,,
,1.091005,2.02E-11,,
,1.093005,1.96E-11,,
,1.095005,1.89E-11,,
,1.097005,1.81E-11,,
,1.099005,1.79E-11,,
,1.101005,1.80E-11,,
,1.103005,1.84E-11,,
,1.105005,1.88E-11,,
,1.107005,1.89E-11,,
,1.109005,1.83E-11,,
,1.111005,1.76E-11,,
,1.113005,1.67E-11,,
,1.115005,1.61E-11,,
,1.117005,1.58E-11,,
,1.119005,1.58E-11,,
,1.121005,1.61E-11,,
,1.123005,1.64E-11,,
,1.125005,1.63E-11,,
,1.127005,1.58E-11,,
,1.129005,1.48E-11,,
,1.131005,1.40E-11,,
,1.133005,1.34E-11,,
,1.135005,1.34E-11,,
,1.137005,1.36E-11,,
,1.139005,1.38E-11,,
,1.141005,1.39E-11,,
,1.143005,1.35E-11,,
,1.145005,1.29E-11,,
,1.147005,1.21E-11,,
,1.149005,1.17E-11,,
,1.151005,1.15E-11,,
,1.153005,1.15E-11,,
,1.155005,1.17E-11,,
,1.157005,1.19E-11,,
,1.159005,1.17E-11,,
,1.161005,1.09E-11,,
,1.163005,1.04E-11,,
,1.165005,9.96E-12,,
,1.167005,1.02E-11,,
,1.169005,1.02E-11,,
,1.171005,1.08E-11,,
,1.173005,1.09E-11,,
,1.175005,1.11E-11,,
,1.177005,1.06E-11,,
,1.179005,9.85E-12,,
,1.181005,9.10E-12,,
,1.183005,8.67E-12,,
,1.185005,8.78E-12,,
,1.187005,8.99E-12,,
,1.189005,9.42E-12,,
,1.191005,9.64E-12,,
,1.193005,9.53E-12,,
,1.195005,8.67E-12,,
,1.197005,8.13E-12,,
,1.199005,7.70E-12,,
,1.201005,7.81E-12,,
,1.203005,8.03E-12,,
,1.205005,8.67E-12,,
,1.207005,9.21E-12,,
,1.209005,9.42E-12,,
,1.211005,9.10E-12,,
,1.213005,8.35E-12,,
,1.215005,7.70E-12,,
,1.217005,7.17E-12,,
,1.219005,7.27E-12,,
,1.221005,7.92E-12,,
,1.223005,8.46E-12,,
,1.225005,8.78E-12,,
,1.227005,8.35E-12,,
,1.229005,8.13E-12,,
,1.231005,7.60E-12,,
,1.233005,7.38E-12,,
,1.235005,7.38E-12,,
,1.237005,8.03E-12,,
,1.239005,8.56E-12,,
,1.241005,8.78E-12,,
,1.243005,8.46E-12,,
,1.245005,8.03E-12,,
,1.247005,7.49E-12,,
,1.249005,7.27E-12,,
,1.251005,7.38E-12,,
,1.253005,7.81E-12,,
,1.255005,8.24E-12,,
,1.257005,8.56E-12,,
,1.259005,8.35E-12,,
,1.261005,7.92E-12,,
,1.263005,7.17E-12,,
,1.265005,7.06E-12,,
,1.267005,7.17E-12,,
,1.269005,7.81E-12,,
,1.271005,8.35E-12,,
,1.273005,8.78E-12,,
,1.275005,8.89E-12,,
,1.277005,8.67E-12,,
,1.279005,8.24E-12,,
,1.281005,7.81E-12,,
,1.283005,7.60E-12,,
,1.285005,7.92E-12,,
,1.287005,8.35E-12,,
,1.289005,8.99E-12,,
,1.291005,9.31E-12,,
,1.293005,9.21E-12,,
,1.295005,8.78E-12,,
,1.297005,8.46E-12,,
,1.299005,8.35E-12,,
,1.301005,8.67E-12,,
,1.303005,8.99E-12,,
,1.305005,9.85E-12,,
,1.307005,1.02E-11,,
,1.309005,1.03E-11,,
,1.311005,9.85E-12,,
,1.313005,9.42E-12,,
,1.315005,9.10E-12,,
,1.317005,8.89E-12,,
,1.319005,9.21E-12,,
,1.321005,9.64E-12,,
,1.323005,1.03E-11,,
,1.325005,1.04E-11,,
,1.327005,1.02E-11,,
,1.329005,9.64E-12,,
,1.331005,9.42E-12,,
,1.333005,9.53E-12,,
,1.335005,9.74E-12,,
,1.337005,9.96E-12,,
,1.339005,1.04E-11,,
,1.341005,1.05E-11,,
,1.343005,1.02E-11,,
,1.345005,9.31E-12,,
,1.347005,8.78E-12,,
,1.349005,8.56E-12,,
,1.351005,8.46E-12,,
,1.353005,8.56E-12,,
,1.355005,8.78E-12,,
,1.357005,9.10E-12,,
,1.359005,9.10E-12,,
,1.361005,8.67E-12,,
,1.363005,8.13E-12,,
,1.365005,7.60E-12,,
,1.367005,7.60E-12,,
,1.369005,7.70E-12,,
,1.371005,8.13E-12,,
,1.373005,8.35E-12,,
,1.375005,8.35E-12,,
,1.377005,7.70E-12,,
,1.379005,6.95E-12,,
,1.381005,6.31E-12,,
,1.383005,5.99E-12,,
,1.385005,6.09E-12,,
,1.387005,6.31E-12,,
,1.389005,6.85E-12,,
,1.391005,6.95E-12,,
,1.393005,6.85E-12,,
,1.395005,6.20E-12,,
,1.397005,5.56E-12,,
,1.399005,5.24E-12,,
,1.401005,5.45E-12,,
,1.403005,5.77E-12,,
,1.405005,6.09E-12,,
,1.407005,6.20E-12,,
,1.409005,6.09E-12,,
,1.411005,5.66E-12,,
,1.413005,5.24E-12,,
,1.415005,4.70E-12,,
,1.417005,4.59E-12,,
,1.419005,4.81E-12,,
,1.421005,5.45E-12,,
,1.423005,5.88E-12,,
,1.425005,6.09E-12,,
,1.427005,5.99E-12,,
,1.429005,5.77E-12,,
,1.431005,5.66E-12,,
,1.433005,5.77E-12,,
,1.435005,6.31E-12,,
,1.437005,6.95E-12,,
,1.439005,7.70E-12,,
,1.441005,8.03E-12,,
,1.443005,7.92E-12,,
,1.445005,7.70E-12,,
,1.447005,7.49E-12,,
,1.449005,7.60E-12,,
,1.451005,7.70E-12,,
,1.453005,8.35E-12,,
,1.455005,9.21E-12,,
,1.457005,9.96E-12,,
,1.459005,1.01E-11,,
,1.461005,9.74E-12,,
,1.463005,9.42E-12,,
,1.465005,9.42E-12,,
,1.467005,9.53E-12,,
,1.469005,1.02E-11,,
,1.471005,1.08E-11,,
,1.473005,1.15E-11,,
,1.475005,1.15E-11,,
,1.477005,1.12E-11,,
,1.479005,1.07E-11,,
,1.481005,1.05E-11,,
,1.483005,1.05E-11,,
,1.485005,1.08E-11,,
,1.487005,1.12E-11,,
,1.489005,1.17E-11,,
,1.491005,1.19E-11,,
,1.493005,1.17E-11,,
,1.495005,1.10E-11,,
,1.497005,1.06E-11,,
,1.499005,1.04E-11,,
,1.501005,1.04E-11,,
,1.503005,1.06E-11,,
,1.505005,1.08E-11,,
,1.507005,1.09E-11,,
,1.509005,1.05E-11,,
,1.511005,9.64E-12,,
,1.513005,8.78E-12,,
,1.515005,8.24E-12,,
,1.517005,8.13E-12,,
,1.519005,8.13E-12,,
,1.521005,8.13E-12,,
,1.523005,8.03E-12,,
,1.525005,8.03E-12,,
,1.527005,7.38E-12,,
,1.529005,6.52E-12,,
,1.531005,5.56E-12,,
,1.533005,5.13E-12,,
,1.535005,4.91E-12,,
,1.537005,5.13E-12,,
,1.539005,5.45E-12,,
,1.541005,5.66E-12,,
,1.543005,5.24E-12,,
,1.545005,4.16E-12,,
,1.547005,3.20E-12,,
,1.549005,2.34E-12,,
,1.551005,2.01E-12,,
,1.553005,2.12E-12,,
,1.555005,2.23E-12,,
,1.557005,2.34E-12,,
,1.559005,1.69E-12,,
,1.561005,9.41E-13,,
,1.563005,-3.47E-13,,
,1.565005,-9.92E-13,,
,1.567005,-1.31E-12,,
,1.569005,-1.10E-12,,
,1.571005,-1.21E-12,,
,1.573005,-8.84E-13,,
,1.575005,-1.10E-12,,
,1.577005,-1.42E-12,,
,1.579005,-2.49E-12,,
,1.581005,-3.03E-12,,
,1.583005,-3.35E-12,,
,1.585005,-3.46E-12,,
,1.587005,-3.25E-12,,
,1.589005,-3.14E-12,,
,1.591005,-3.14E-12,,
,1.593005,-3.57E-12,,
,1.595005,-4.32E-12,,
,1.597005,-4.86E-12,,
,1.599005,-5.07E-12,,
,1.601005,-4.75E-12,,
,1.603005,-4.53E-12,,
,1.605005,-4.21E-12,,
,1.607005,-4.10E-12,,
,1.609005,-4.10E-12,,
,1.611005,-4.64E-12,,
,1.613005,-5.18E-12,,
,1.615005,-5.82E-12,,
,1.617005,-6.25E-12,,
,1.619005,-6.14E-12,,
,1.621005,-5.50E-12,,
,1.623005,-5.18E-12,,
,1.625005,-5.29E-12,,
,1.627005,-6.04E-12,,
,1.629005,-6.68E-12,,
,1.631005,-7.11E-12,,
,1.633005,-7.11E-12,,
,1.635005,-6.68E-12,,
,1.637005,-6.47E-12,,
,1.639005,-6.36E-12,,
,1.641005,-6.47E-12,,
,1.643005,-7.11E-12,,
,1.645005,-7.75E-12,,
,1.647005,-8.51E-12,,
,1.649005,-8.61E-12,,
,1.651005,-8.61E-12,,
,1.653005,-8.40E-12,,
,1.655005,-8.29E-12,,
,1.657005,-8.29E-12,,
,1.659005,-8.72E-12,,
,1.661005,-9.15E-12,,
,1.663005,-9.79E-12,,
,1.665005,-1.02E-11,,
,1.667005,-1.03E-11,,
,1.669005,-1.00E-11,,
,1.671005,-9.47E-12,,
,1.673005,-9.47E-12,,
,1.675005,-9.37E-12,,
,1.677005,-9.79E-12,,
,1.679005,-1.04E-11,,
,1.681005,-1.13E-11,,
,1.683005,-1.17E-11,,
,1.685005,-1.16E-11,,
,1.687005,-1.14E-11,,
,1.689005,-1.11E-11,,
,1.691005,-1.09E-11,,
,1.693005,-1.12E-11,,
,1.695005,-1.14E-11,,
,1.697005,-1.16E-11,,
,1.699005,-1.13E-11,,
,1.701005,-1.11E-11,,
,1.703005,-1.07E-11,,
,1.705005,-1.01E-11,,
,1.707005,-9.69E-12,,
,1.709005,-9.58E-12,,
,1.711005,-9.90E-12,,
,1.713005,-1.03E-11,,
,1.715005,-1.08E-11,,
,1.717005,-1.09E-11,,
,1.719005,-1.08E-11,,
,1.721005,-1.01E-11,,
,1.723005,-9.47E-12,,
,1.725005,-8.94E-12,,
,1.727005,-9.04E-12,,
,1.729005,-9.26E-12,,
,1.731005,-9.47E-12,,
,1.733005,-9.47E-12,,
,1.735005,-9.26E-12,,
,1.737005,-8.83E-12,,
,1.739005,-8.18E-12,,
,1.741005,-7.86E-12,,
,1.743005,-7.97E-12,,
,1.745005,-8.40E-12,,
,1.747005,-8.83E-12,,
,1.749005,-8.94E-12,,
,1.751005,-8.83E-12,,
,1.753005,-8.61E-12,,
,1.755005,-8.08E-12,,
,1.757005,-7.75E-12,,
,1.759005,-7.54E-12,,
,1.761005,-7.97E-12,,
,1.763005,-8.51E-12,,
,1.765005,-8.72E-12,,
,1.767005,-8.72E-12,,
,1.769005,-8.51E-12,,
,1.771005,-8.18E-12,,
,1.773005,-7.97E-12,,
,1.775005,-7.86E-12,,
,1.777005,-8.40E-12,,
,1.779005,-8.83E-12,,
,1.781005,-9.26E-12,,
,1.783005,-9.47E-12,,
,1.785005,-9.58E-12,,
,1.787005,-9.37E-12,,
,1.789005,-9.04E-12,,
,1.791005,-9.04E-12,,
,1.793005,-9.37E-12,,
,1.795005,-1.00E-11,,
,1.797005,-1.04E-11,,
,1.799005,-1.09E-11,,
,1.801005,-1.09E-11,,
,1.803005,-1.07E-11,,
,1.805005,-1.03E-11,,
,1.807005,-1.01E-11,,
,1.809005,-1.04E-11,,
,1.811005,-1.10E-11,,
,1.813005,-1.17E-11,,
,1.815005,-1.22E-11,,
,1.817005,-1.23E-11,,
,1.819005,-1.22E-11,,
,1.821005,-1.19E-11,,
,1.823005,-1.17E-11,,
,1.825005,-1.17E-11,,
,1.827005,-1.22E-11,,
,1.829005,-1.28E-11,,
,1.831005,-1.30E-11,,
,1.833005,-1.31E-11,,
,1.835005,-1.29E-11,,
,1.837005,-1.26E-11,,
,1.839005,-1.20E-11,,
,1.841005,-1.18E-11,,
,1.843005,-1.22E-11,,
,1.845005,-1.26E-11,,
,1.847005,-1.30E-11,,
,1.849005,-1.34E-11,,
,1.851005,-1.34E-11,,
,1.853005,-1.32E-11,,
,1.855005,-1.27E-11,,
,1.857005,-1.23E-11,,
,1.859005,-1.22E-11,,
,1.861005,-1.25E-11,,
,1.863005,-1.29E-11,,
,1.865005,-1.32E-11,,
,1.867005,-1.32E-11,,
,1.869005,-1.28E-11,,
,1.871005,-1.23E-11,,
,1.873005,-1.15E-11,,
,1.875005,-1.15E-11,,
,1.877005,-1.16E-11,,
,1.879005,-1.22E-11,,
,1.881005,-1.25E-11,,
,1.883005,-1.27E-11,,
,1.885005,-1.26E-11,,
,1.887005,-1.22E-11,,
,1.889005,-1.16E-11,,
,1.891005,-1.13E-11,,
,1.893005,-1.13E-11,,
,1.895005,-1.16E-11,,
,1.897005,-1.18E-11,,
,1.899005,-1.18E-11,,
,1.901005,-1.14E-11,,
,1.903005,-1.07E-11,,
,1.905005,-9.79E-12,,
,1.907005,-9.37E-12,,
,1.909005,-9.04E-12,,
,1.911005,-9.15E-12,,
,1.913005,-9.26E-12,,
,1.915005,-9.47E-12,,
,1.917005,-9.37E-12,,
,1.919005,-8.94E-12,,
,1.921005,-8.29E-12,,
,1.923005,-7.75E-12,,
,1.925005,-7.33E-12,,
,1.927005,-7.11E-12,,
,1.929005,-7.33E-12,,
,1.931005,-7.33E-12,,
,1.933005,-7.00E-12,,
,1.935005,-6.14E-12,,
,1.937005,-5.07E-12,,
,1.939005,-4.21E-12,,
,1.941005,-3.46E-12,,
,1.943005,-3.25E-12,,
,1.945005,-3.25E-12,,
,1.947005,-3.35E-12,,
,1.949005,-3.25E-12,,
,1.951005,-2.92E-12,,
,1.953005,-2.28E-12,,
,1.955005,-1.42E-12,,
,1.957005,-6.69E-13,,
,1.959005,-2.53E-14,,
,1.961005,1.89E-13,,
,1.963005,2.97E-13,,
,1.965005,6.19E-13,,
,1.967005,1.26E-12,,
,1.969005,2.23E-12,,
,1.971005,3.20E-12,,
,1.973005,4.27E-12,,
,1.975005,5.24E-12,,
,1.977005,5.66E-12,,
,1.979005,5.66E-12,,
,1.981005,5.77E-12,,
,1.983005,6.09E-12,,
,1.985005,7.06E-12,,
,1.987005,8.13E-12,,
,1.989005,9.31E-12,,
,1.991005,1.01E-11,,
,1.993005,1.04E-11,,
,1.995005,1.07E-11,,
,1.997005,1.08E-11,,
,1.999005,1.14E-11,,
,2.001005,1.21E-11,,
,2.003005,1.32E-11,,
,2.005005,1.43E-11,,
,2.007005,1.49E-11,,
,2.009005,1.54E-11,,
,2.011005,1.56E-11,,
,2.013005,1.59E-11,,
,2.015005,1.61E-11,,
,2.017005,1.65E-11,,
,2.019005,1.75E-11,,
,2.021005,1.85E-11,,
,2.023005,1.95E-11,,
,2.025005,1.99E-11,,
,2.027005,2.03E-11,,
,2.029005,2.03E-11,,
,2.031005,2.06E-11,,
,2.033005,2.08E-11,,
,2.035005,2.17E-11,,
,2.037005,2.26E-11,,
,2.039005,2.37E-11,,
,2.041005,2.46E-11,,
,2.043005,2.49E-11,,
,2.045005,2.49E-11,,
,2.047005,2.49E-11,,
,2.049005,2.50E-11,,
,2.051005,2.57E-11,,
,2.053005,2.63E-11,,
,2.055005,2.69E-11,,
,2.057005,2.72E-11,,
,2.059005,2.74E-11,,
,2.061005,2.74E-11,,
,2.063005,2.72E-11,,
,2.065005,2.72E-11,,
,2.067005,2.75E-11,,
,2.069005,2.80E-11,,
,2.071005,2.89E-11,,
,2.073005,2.97E-11,,
,2.075005,3.00E-11,,
,2.077005,2.98E-11,,
,2.079005,2.94E-11,,
,2.081005,2.92E-11,,
,2.083005,2.94E-11,,
,2.085005,2.98E-11,,
,2.087005,3.02E-11,,
,2.089005,3.06E-11,,
,2.091005,3.08E-11,,
,2.093005,3.09E-11,,
,2.095005,3.08E-11,,
,2.097005,3.06E-11,,
,2.099005,3.04E-11,,
,2.101005,3.06E-11,,
,2.103005,3.09E-11,,
,2.105005,3.15E-11,,
,2.107005,3.18E-11,,
,2.109005,3.18E-11,,
,2.111005,3.13E-11,,
,2.113005,3.08E-11,,
,2.115005,3.02E-11,,
,2.117005,3.01E-11,,
,2.119005,3.04E-11,,
,2.121005,3.10E-11,,
,2.123005,3.13E-11,,
,2.125005,3.13E-11,,
,2.127005,3.08E-11,,
,2.129005,3.02E-11,,
,2.131005,2.96E-11,,
,2.133005,2.94E-11,,
,2.135005,2.94E-11,,
,2.137005,2.97E-11,,
,2.139005,2.99E-11,,
,2.141005,3.00E-11,,
,2.143005,2.99E-11,,
,2.145005,2.94E-11,,
,2.147005,2.86E-11,,
,2.149005,2.79E-11,,
,2.151005,2.76E-11,,
,2.153005,2.76E-11,,
,2.155005,2.78E-11,,
,2.157005,2.79E-11,,
,2.159005,2.77E-11,,
,2.161005,2.70E-11,,
,2.163005,2.64E-11,,
,2.165005,2.60E-11,,
,2.167005,2.58E-11,,
,2.169005,2.58E-11,,
,2.171005,2.60E-11,,
,2.173005,2.60E-11,,
,2.175005,2.57E-11,,
,2.177005,2.51E-11,,
,2.179005,2.45E-11,,
,2.181005,2.38E-11,,
,2.183005,2.33E-11,,
,2.185005,2.32E-11,,
,2.187005,2.32E-11,,
,2.189005,2.33E-11,,
,2.191005,2.29E-11,,
,2.193005,2.25E-11,,
,2.195005,2.19E-11,,
,2.197005,2.16E-11,,
,2.199005,2.12E-11,,
,2.201005,2.10E-11,,
,2.203005,2.09E-11,,
,2.205005,2.11E-11,,
,2.207005,2.10E-11,,
,2.209005,2.08E-11,,
,2.211005,1.98E-11,,
,2.213005,1.92E-11,,
,2.215005,1.85E-11,,
,2.217005,1.82E-11,,
,2.219005,1.82E-11,,
,2.221005,1.83E-11,,
,2.223005,1.85E-11,,
,2.225005,1.84E-11,,
,2.227005,1.79E-11,,
,2.229005,1.70E-11,,
,2.231005,1.65E-11,,
,2.233005,1.62E-11,,
,2.235005,1.63E-11,,
,2.237005,1.64E-11,,
,2.239005,1.66E-11,,
,2.241005,1.67E-11,,
,2.243005,1.67E-11,,
,2.245005,1.64E-11,,
,2.247005,1.59E-11,,
,2.249005,1.53E-11,,
,2.251005,1.51E-11,,
,2.253005,1.53E-11,,
,2.255005,1.56E-11,,
,2.257005,1.58E-11,,
,2.259005,1.56E-11,,
,2.261005,1.52E-11,,
,2.263005,1.47E-11,,
,2.265005,1.44E-11,,
,2.267005,1.44E-11,,
,2.269005,1.48E-11,,
,2.271005,1.52E-11,,
,2.273005,1.58E-11,,
,2.275005,1.56E-11,,
,2.277005,1.55E-11,,
,2.279005,1.49E-11,,
,2.281005,1.45E-11,,
,2.283005,1.41E-11,,
,2.285005,1.45E-11,,
,2.287005,1.49E-11,,
,2.289005,1.52E-11,,
,2.291005,1.51E-11,,
,2.293005,1.49E-11,,
,2.295005,1.46E-11,,
,2.297005,1.43E-11,,
,2.299005,1.43E-11,,
,2.301005,1.44E-11,,
,2.303005,1.47E-11,,
,2.305005,1.53E-11,,
,2.307005,1.56E-11,,
,2.309005,1.58E-11,,
,2.311005,1.53E-11,,
,2.313005,1.50E-11,,
,2.315005,1.46E-11,,
,2.317005,1.44E-11,,
,2.319005,1.44E-11,,
,2.321005,1.48E-11,,
,2.323005,1.52E-11,,
,2.325005,1.54E-11,,
,2.327005,1.51E-11,,
,2.329005,1.48E-11,,
,2.331005,1.44E-11,,
,2.333005,1.41E-11,,
,2.335005,1.43E-11,,
,2.337005,1.47E-11,,
,2.339005,1.55E-11,,
,2.341005,1.59E-11,,
,2.343005,1.58E-11,,
,2.345005,1.51E-11,,
,2.347005,1.46E-11,,
,2.349005,1.44E-11,,
,2.351005,1.44E-11,,
,2.353005,1.47E-11,,
,2.355005,1.51E-11,,
,2.357005,1.55E-11,,
,2.359005,1.54E-11,,
,2.361005,1.50E-11,,
,2.363005,1.46E-11,,
,2.365005,1.41E-11,,
,2.367005,1.43E-11,,
,2.369005,1.45E-11,,
,2.371005,1.52E-11,,
,2.373005,1.55E-11,,
,2.375005,1.56E-11,,
,2.377005,1.54E-11,,
,2.379005,1.51E-11,,
,2.381005,1.47E-11,,
,2.383005,1.46E-11,,
,2.385005,1.46E-11,,
,2.387005,1.50E-11,,
,2.389005,1.51E-11,,
,2.391005,1.50E-11,,
,2.393005,1.46E-11,,
,2.395005,1.38E-11,,
,2.397005,1.34E-11,,
,2.399005,1.32E-11,,
,2.401005,1.34E-11,,
,2.403005,1.37E-11,,
,2.405005,1.39E-11,,
,2.407005,1.43E-11,,
,2.409005,1.40E-11,,
,2.411005,1.36E-11,,
,2.413005,1.33E-11,,
,2.415005,1.32E-11,,
,2.417005,1.33E-11,,
,2.419005,1.31E-11,,
,2.421005,1.34E-11,,
,2.423005,1.35E-11,,
,2.425005,1.34E-11,,
,2.427005,1.31E-11,,
,2.429005,1.29E-11,,
,2.431005,1.29E-11,,
,2.433005,1.29E-11,,
,2.435005,1.31E-11,,
,2.437005,1.34E-11,,
,2.439005,1.38E-11,,
,2.441005,1.44E-11,,
,2.443005,1.44E-11,,
,2.445005,1.40E-11,,
,2.447005,1.33E-11,,
,2.449005,1.30E-11,,
,2.451005,1.31E-11,,
,2.453005,1.35E-11,,
,2.455005,1.40E-11,,
,2.457005,1.44E-11,,
,2.459005,1.46E-11,,
,2.461005,1.46E-11,,
,2.463005,1.44E-11,,
,2.465005,1.43E-11,,
,2.467005,1.46E-11,,
,2.469005,1.50E-11,,
,2.471005,1.55E-11,,
,2.473005,1.59E-11,,
,2.475005,1.61E-11,,
,2.477005,1.60E-11,,
,2.479005,1.55E-11,,
,2.481005,1.52E-11,,
,2.483005,1.52E-11,,
,2.485005,1.54E-11,,
,2.487005,1.59E-11,,
,2.489005,1.62E-11,,
,2.491005,1.64E-11,,
,2.493005,1.61E-11,,
,2.495005,1.56E-11,,
,2.497005,1.53E-11,,
,2.499005,1.53E-11,,
,2.501005,1.55E-11,,
,2.503005,1.59E-11,,
,2.505005,1.63E-11,,
,2.507005,1.64E-11,,
,2.509005,1.60E-11,,
,2.511005,1.53E-11,,
,2.513005,1.47E-11,,
,2.515005,1.45E-11,,
,2.517005,1.44E-11,,
,2.519005,1.43E-11,,
,2.521005,1.45E-11,,
,2.523005,1.44E-11,,
,2.525005,1.44E-11,,
,2.527005,1.36E-11,,
,2.529005,1.29E-11,,
,2.531005,1.22E-11,,
,2.533005,1.22E-11,,
,2.535005,1.24E-11,,
,2.537005,1.25E-11,,
,2.539005,1.24E-11,,
,2.541005,1.24E-11,,
,2.543005,1.20E-11,,
,2.545005,1.14E-11,,
,2.547005,1.06E-11,,
,2.549005,1.02E-11,,
,2.551005,1.01E-11,,
,2.553005,9.96E-12,,
,2.555005,1.01E-11,,
,2.557005,1.01E-11,,
,2.559005,9.96E-12,,
,2.561005,9.31E-12,,
,2.563005,8.56E-12,,
,2.565005,7.92E-12,,
,2.567005,7.92E-12,,
,2.569005,7.81E-12,,
,2.571005,8.24E-12,,
,2.573005,8.13E-12,,
,2.575005,8.13E-12,,
,2.577005,7.27E-12,,
,2.579005,6.95E-12,,
,2.581005,6.42E-12,,
,2.583005,6.31E-12,,
,2.585005,6.09E-12,,
,2.587005,6.20E-12,,
,2.589005,6.31E-12,,
,2.591005,6.42E-12,,
,2.593005,6.31E-12,,
,2.595005,5.99E-12,,
,2.597005,5.34E-12,,
,2.599005,5.02E-12,,
,2.601005,4.91E-12,,
,2.603005,5.45E-12,,
,2.605005,5.77E-12,,
,2.607005,6.20E-12,,
,2.609005,5.77E-12,,
,2.611005,5.34E-12,,
,2.613005,4.70E-12,,
,2.615005,4.81E-12,,
,2.617005,4.91E-12,,
,2.619005,5.13E-12,,
,2.621005,5.13E-12,,
,2.623005,5.45E-12,,
,2.625005,5.66E-12,,
,2.627005,5.45E-12,,
,2.629005,4.91E-12,,
,2.631005,4.70E-12,,
,2.633005,4.70E-12,,
,2.635005,4.81E-12,,
,2.637005,4.91E-12,,
,2.639005,5.02E-12,,
,2.641005,5.13E-12,,
,2.643005,5.02E-12,,
,2.645005,4.70E-12,,
,2.647005,4.38E-12,,
,2.649005,3.95E-12,,
,2.651005,3.84E-12,,
,2.653005,4.16E-12,,
,2.655005,4.70E-12,,
,2.657005,5.02E-12,,
,2.659005,4.70E-12,,
,2.661005,4.16E-12,,
,2.663005,3.73E-12,,
,2.665005,3.62E-12,,
,2.667005,3.52E-12,,
,2.669005,3.73E-12,,
,2.671005,4.16E-12,,
,2.673005,4.59E-12,,
,2.675005,4.70E-12,,
,2.677005,4.16E-12,,
,2.679005,3.84E-12,,
,2.681005,3.41E-12,,
,2.683005,3.30E-12,,
,2.685005,3.09E-12,,
,2.687005,3.20E-12,,
,2.689005,3.41E-12,,
,2.691005,3.62E-12,,
,2.693005,3.41E-12,,
,2.695005,3.09E-12,,
,2.697005,2.66E-12,,
,2.699005,2.66E-12,,
,2.701005,2.66E-12,,
,2.703005,2.98E-12,,
,2.705005,3.30E-12,,
,2.707005,3.62E-12,,
,2.709005,3.62E-12,,
,2.711005,3.41E-12,,
,2.713005,3.09E-12,,
,2.715005,2.66E-12,,
,2.717005,2.66E-12,,
,2.719005,2.98E-12,,
,2.721005,3.52E-12,,
,2.723005,3.95E-12,,
,2.725005,4.16E-12,,
,2.727005,4.16E-12,,
,2.729005,3.73E-12,,
,2.731005,3.20E-12,,
,2.733005,3.09E-12,,
,2.735005,3.52E-12,,
,2.737005,4.27E-12,,
,2.739005,5.02E-12,,
,2.741005,5.24E-12,,
,2.743005,5.24E-12,,
,2.745005,5.02E-12,,
,2.747005,5.02E-12,,
,2.749005,5.02E-12,,
,2.751005,5.13E-12,,
,2.753005,5.24E-12,,
,2.755005,5.66E-12,,
,2.757005,5.77E-12,,
,2.759005,5.88E-12,,
,2.761005,5.56E-12,,
,2.763005,5.66E-12,,
,2.765005,5.88E-12,,
,2.767005,6.20E-12,,
,2.769005,6.42E-12,,
,2.771005,6.74E-12,,
,2.773005,7.17E-12,,
,2.775005,7.38E-12,,
,2.777005,7.27E-12,,
,2.779005,7.06E-12,,
,2.781005,6.95E-12,,
,2.783005,7.06E-12,,
,2.785005,7.27E-12,,
,2.787005,7.70E-12,,
,2.789005,7.92E-12,,
,2.791005,8.03E-12,,
,2.793005,7.92E-12,,
,2.795005,7.81E-12,,
,2.797005,7.60E-12,,
,2.799005,7.49E-12,,
,2.801005,7.81E-12,,
,2.803005,8.03E-12,,
,2.805005,8.46E-12,,
,2.807005,8.67E-12,,
,2.809005,8.78E-12,,
,2.811005,8.35E-12,,
,2.813005,7.81E-12,,
,2.815005,7.60E-12,,
,2.817005,7.81E-12,,
,2.819005,7.92E-12,,
,2.821005,7.60E-12,,
,2.823005,6.74E-12,,
,2.825005,5.34E-12,,
,2.827005,3.20E-12,,
,2.829005,-1.33E-13,,
,2.831005,-4.32E-12,,
,2.833005,-8.72E-12,,
,2.835005,-1.32E-11,,
,2.837005,-1.82E-11,,
,2.839005,-2.36E-11,,
,2.841005,-2.98E-11,,
,2.843005,-3.65E-11,,
,2.845005,-4.38E-11,,
,2.847005,-5.16E-11,,
,2.849005,-5.91E-11,,
,2.851005,-6.64E-11,,
,2.853005,-7.31E-11,,
,2.855005,-7.98E-11,,
,2.857005,-8.66E-11,,
,2.859005,-9.34E-11,,
,2.861005,-1.01E-10,,
,2.863005,-1.07E-10,,
,2.865005,-1.14E-10,,
,2.867005,-1.20E-10,,
,2.869005,-1.26E-10,,
,2.871005,-1.31E-10,,
,2.873005,-1.36E-10,,
,2.875005,-1.40E-10,,
,2.877005,-1.45E-10,,
,2.879005,-1.50E-10,,
,2.881005,-1.54E-10,,
,2.883005,-1.58E-10,,
,2.885005,-1.62E-10,,
,2.887005,-1.64E-10,,
,2.889005,-1.66E-10,,
,2.891005,-1.69E-10,,
,2.893005,-1.71E-10,,
,2.895005,-1.74E-10,,
,2.897005,-1.76E-10,,
,2.899005,-1.78E-10,,
,2.901005,-1.79E-10,,
,2.903005,-1.80E-10,,
,2.905005,-1.81E-10,,
,2.907005,-1.82E-10,,
,2.909005,-1.82E-10,,
,2.911005,-1.83E-10,,
,2.913005,-1.83E-10,,
,2.915005,-1.84E-10,,
,2.917005,-1.84E-10,,
,2.919005,-1.83E-10,,
,2.921005,-1.82E-10,,
,2.923005,-1.81E-10,,
,2.925005,-1.81E-10,,
,2.927005,-1.80E-10,,
,2.929005,-1.79E-10,,
,2.931005,-1.78E-10,,
,2.933005,-1.78E-10,,
,2.935005,-1.76E-10,,
,2.937005,-1.74E-10,,
,2.939005,-1.73E-10,,
,2.941005,-1.71E-10,,
,2.943005,-1.69E-10,,
,2.945005,-1.68E-10,,
,2.947005,-1.66E-10,,
,2.949005,-1.65E-10,,
,2.951005,-1.63E-10,,
,2.953005,-1.61E-10,,
,2.955005,-1.58E-10,,
,2.957005,-1.56E-10,,
,2.959005,-1.54E-10,,
,2.961005,-1.52E-10,,
,2.963005,-1.50E-10,,
,2.965005,-1.49E-10,,
,2.967005,-1.47E-10,,
,2.969005,-1.44E-10,,
,2.971005,-1.42E-10,,
,2.973005,-1.40E-10,,
,2.975005,-1.38E-10,,
,2.977005,-1.35E-10,,
,2.979005,-1.34E-10,,
,2.981005,-1.32E-10,,
,2.983005,-1.30E-10,,
,2.985005,-1.28E-10,,
,2.987005,-1.25E-10,,
,2.989005,-1.23E-10,,
,2.991005,-1.20E-10,,
,2.993005,-1.18E-10,,
,2.995005,-1.17E-10,,
,2.997005,-1.15E-10,,
,2.999005,-1.14E-10,,
,3.001005,-1.12E-10,,
,3.003005,-1.10E-10,,
,3.005005,-1.07E-10,,
,3.007005,-1.05E-10,,
,3.009005,-1.03E-10,,
,3.011005,-1.01E-10,,
,3.013005,-9.99E-11,,
,3.015005,-9.83E-11,,
,3.017005,-9.69E-11,,
,3.019005,-9.50E-11,,
,3.021005,-9.31E-11,,
,3.023005,-9.11E-11,,
,3.025005,-8.96E-11,,
,3.027005,-8.81E-11,,
,3.029005,-8.70E-11,,
,3.031005,-8.58E-11,,
,3.033005,-8.46E-11,,
,3.035005,-8.28E-11,,
,3.037005,-8.09E-11,,
,3.039005,-7.88E-11,,
,3.041005,-7.72E-11,,
,3.043005,-7.58E-11,,
,3.045005,-7.46E-11,,
,3.047005,-7.36E-11,,
,3.049005,-7.25E-11,,
,3.051005,-7.14E-11,,
,3.053005,-7.00E-11,,
,3.055005,-6.83E-11,,
,3.057005,-6.66E-11,,
,3.059005,-6.53E-11,,
,3.061005,-6.45E-11,,
,3.063005,-6.40E-11,,
,3.065005,-6.33E-11,,
,3.067005,-6.23E-11,,
,3.069005,-6.09E-11,,
,3.071005,-5.94E-11,,
,3.073005,-5.79E-11,,
,3.075005,-5.66E-11,,
,3.077005,-5.60E-11,,
,3.079005,-5.57E-11,,
,3.081005,-5.56E-11,,
,3.083005,-5.49E-11,,
,3.085005,-5.38E-11,,
,3.087005,-5.26E-11,,
,3.089005,-5.14E-11,,
,3.091005,-5.03E-11,,
,3.093005,-4.96E-11,,
,3.095005,-4.96E-11,,
,3.097005,-4.96E-11,,
,3.099005,-4.92E-11,,
,3.101005,-4.82E-11,,
,3.103005,-4.73E-11,,
,3.105005,-4.62E-11,,
,3.107005,-4.52E-11,,
,3.109005,-4.44E-11,,
,3.111005,-4.41E-11,,
,3.113005,-4.43E-11,,
,3.115005,-4.46E-11,,
,3.117005,-4.44E-11,,
,3.119005,-4.37E-11,,
,3.121005,-4.29E-11,,
,3.123005,-4.19E-11,,
,3.125005,-4.14E-11,,
,3.127005,-4.11E-11,,
,3.129005,-4.15E-11,,
,3.131005,-4.16E-11,,
,3.133005,-4.15E-11,,
,3.135005,-4.09E-11,,
,3.137005,-4.04E-11,,
,3.139005,-3.95E-11,,
,3.141005,-3.88E-11,,
,3.143005,-3.84E-11,,
,3.145005,-3.86E-11,,
,3.147005,-3.92E-11,,
,3.149005,-3.97E-11,,
,3.151005,-3.94E-11,,
,3.153005,-3.87E-11,,
,3.155005,-3.77E-11,,
,3.157005,-3.73E-11,,
,3.159005,-3.71E-11,,
,3.161005,-3.72E-11,,
,3.163005,-3.77E-11,,
,3.165005,-3.80E-11,,
,3.167005,-3.80E-11,,
,3.169005,-3.75E-11,,
,3.171005,-3.66E-11,,
,3.173005,-3.59E-11,,
,3.175005,-3.52E-11,,
,3.177005,-3.52E-11,,
,3.179005,-3.58E-11,,
,3.181005,-3.64E-11,,
,3.183005,-3.67E-11,,
,3.185005,-3.63E-11,,
,3.187005,-3.57E-11,,
,3.189005,-3.49E-11,,
,3.191005,-3.47E-11,,
,3.193005,-3.48E-11,,
,3.195005,-3.53E-11,,
,3.197005,-3.57E-11,,
,3.199005,-3.60E-11,,
,3.201005,-3.57E-11,,
,3.203005,-3.50E-11,,
,3.205005,-3.41E-11,,
,3.207005,-3.35E-11,,
,3.209005,-3.35E-11,,
,3.211005,-3.37E-11,,
,3.213005,-3.43E-11,,
,3.215005,-3.46E-11,,
,3.217005,-3.49E-11,,
,3.219005,-3.45E-11,,
,3.221005,-3.36E-11,,
,3.223005,-3.27E-11,,
,3.225005,-3.23E-11,,
,3.227005,-3.28E-11,,
,3.229005,-3.33E-11,,
,3.231005,-3.39E-11,,
,3.233005,-3.39E-11,,
,3.235005,-3.38E-11,,
,3.237005,-3.28E-11,,
,3.239005,-3.20E-11,,
,3.241005,-3.12E-11,,
,3.243005,-3.12E-11,,
,3.245005,-3.14E-11,,
,3.247005,-3.19E-11,,
,3.249005,-3.22E-11,,
,3.251005,-3.20E-11,,
,3.253005,-3.14E-11,,
,3.255005,-3.03E-11,,
,3.257005,-2.97E-11,,
,3.259005,-2.93E-11,,
,3.261005,-2.99E-11,,
,3.263005,-3.02E-11,,
,3.265005,-3.06E-11,,
,3.267005,-3.03E-11,,
,3.269005,-2.97E-11,,
,3.271005,-2.88E-11,,
,3.273005,-2.80E-11,,
,3.275005,-2.76E-11,,
,3.277005,-2.74E-11,,
,3.279005,-2.78E-11,,
,3.281005,-2.82E-11,,
,3.283005,-2.84E-11,,
,3.285005,-2.78E-11,,
,3.287005,-2.72E-11,,
,3.289005,-2.64E-11,,
,3.291005,-2.58E-11,,
,3.293005,-2.56E-11,,
,3.295005,-2.58E-11,,
,3.297005,-2.62E-11,,
,3.299005,-2.63E-11,,
,3.301005,-2.61E-11,,
,3.303005,-2.54E-11,,
,3.305005,-2.47E-11,,
,3.307005,-2.38E-11,,
,3.309005,-2.34E-11,,
,3.311005,-2.33E-11,,
,3.313005,-2.36E-11,,
,3.315005,-2.41E-11,,
,3.317005,-2.42E-11,,
,3.319005,-2.39E-11,,
,3.321005,-2.29E-11,,
,3.323005,-2.22E-11,,
,3.325005,-2.19E-11,,
,3.327005,-2.21E-11,,
,3.329005,-2.28E-11,,
,3.331005,-2.33E-11,,
,3.333005,-2.35E-11,,
,3.335005,-2.29E-11,,
,3.337005,-2.21E-11,,
,3.339005,-2.12E-11,,
,3.341005,-2.05E-11,,
,3.343005,-2.03E-11,,
,3.345005,-2.09E-11,,
,3.347005,-2.14E-11,,
,3.349005,-2.17E-11,,
,3.351005,-2.15E-11,,
,3.353005,-2.09E-11,,
,3.355005,-2.01E-11,,
,3.357005,-1.96E-11,,
,3.359005,-1.96E-11,,
,3.361005,-1.99E-11,,
,3.363005,-2.04E-11,,
,3.365005,-2.06E-11,,
,3.367005,-2.04E-11,,
,3.369005,-1.98E-11,,
,3.371005,-1.91E-11,,
,3.373005,-1.82E-11,,
,3.375005,-1.75E-11,,
,3.377005,-1.74E-11,,
,3.379005,-1.82E-11,,
,3.381005,-1.90E-11,,
,3.383005,-1.93E-11,,
,3.385005,-1.92E-11,,
,3.387005,-1.86E-11,,
,3.389005,-1.77E-11,,
,3.391005,-1.71E-11,,
,3.393005,-1.71E-11,,
,3.395005,-1.77E-11,,
,3.397005,-1.84E-11,,
,3.399005,-1.87E-11,,
,3.401005,-1.87E-11,,
,3.403005,-1.83E-11,,
,3.405005,-1.75E-11,,
,3.407005,-1.67E-11,,
,3.409005,-1.63E-11,,
,3.411005,-1.67E-11,,
,3.413005,-1.74E-11,,
,3.415005,-1.82E-11,,
,3.417005,-1.82E-11,,
,3.419005,-1.80E-11,,
,3.421005,-1.72E-11,,
,3.423005,-1.68E-11,,
,3.425005,-1.66E-11,,
,3.427005,-1.72E-11,,
,3.429005,-1.82E-11,,
,3.431005,-1.87E-11,,
,3.433005,-1.87E-11,,
,3.435005,-1.83E-11,,
,3.437005,-1.74E-11,,
,3.439005,-1.65E-11,,
,3.441005,-1.56E-11,,
,3.443005,-1.59E-11,,
,3.445005,-1.66E-11,,
,3.447005,-1.75E-11,,
,3.449005,-1.78E-11,,
,3.451005,-1.77E-11,,
,3.453005,-1.72E-11,,
,3.455005,-1.66E-11,,
,3.457005,-1.60E-11,,
,3.459005,-1.61E-11,,
,3.461005,-1.66E-11,,
,3.463005,-1.72E-11,,
,3.465005,-1.75E-11,,
,3.467005,-1.76E-11,,
,3.469005,-1.72E-11,,
,3.471005,-1.65E-11,,
,3.473005,-1.57E-11,,
,3.475005,-1.55E-11,,
,3.477005,-1.57E-11,,
,3.479005,-1.63E-11,,
,3.481005,-1.70E-11,,
,3.483005,-1.75E-11,,
,3.485005,-1.73E-11,,
,3.487005,-1.67E-11,,
,3.489005,-1.55E-11,,
,3.491005,-1.49E-11,,
,3.493005,-1.52E-11,,
,3.495005,-1.59E-11,,
,3.497005,-1.66E-11,,
,3.499005,-1.68E-11,,
,3.501005,-1.67E-11,,
,3.503005,-1.60E-11,,
,3.505005,-1.52E-11,,
,3.507005,-1.46E-11,,
,3.509005,-1.45E-11,,
,3.511005,-1.47E-11,,
,3.513005,-1.52E-11,,
,3.515005,-1.57E-11,,
,3.517005,-1.58E-11,,
,3.519005,-1.56E-11,,
,3.521005,-1.49E-11,,
,3.523005,-1.46E-11,,
,3.525005,-1.44E-11,,
,3.527005,-1.47E-11,,
,3.529005,-1.53E-11,,
,3.531005,-1.58E-11,,
,3.533005,-1.61E-11,,
,3.535005,-1.61E-11,,
,3.537005,-1.57E-11,,
,3.539005,-1.49E-11,,
,3.541005,-1.46E-11,,
,3.543005,-1.47E-11,,
,3.545005,-1.56E-11,,
,3.547005,-1.61E-11,,
,3.549005,-1.70E-11,,
,3.551005,-1.71E-11,,
,3.553005,-1.69E-11,,
,3.555005,-1.60E-11,,
,3.557005,-1.55E-11,,
,3.559005,-1.57E-11,,
,3.561005,-1.66E-11,,
,3.563005,-1.75E-11,,
,3.565005,-1.82E-11,,
,3.567005,-1.84E-11,,
,3.569005,-1.84E-11,,
,3.571005,-1.77E-11,,
,3.573005,-1.69E-11,,
,3.575005,-1.66E-11,,
,3.577005,-1.69E-11,,
,3.579005,-1.75E-11,,
,3.581005,-1.80E-11,,
,3.583005,-1.83E-11,,
,3.585005,-1.84E-11,,
,3.587005,-1.78E-11,,
,3.589005,-1.72E-11,,
,3.591005,-1.67E-11,,
,3.593005,-1.68E-11,,
,3.595005,-1.73E-11,,
,3.597005,-1.78E-11,,
,3.599005,-1.82E-11,,
,3.601005,-1.78E-11,,
,3.603005,-1.70E-11,,
,3.605005,-1.60E-11,,
,3.607005,-1.51E-11,,
,3.609005,-1.48E-11,,
,3.611005,-1.49E-11,,
,3.613005,-1.57E-11,,
,3.615005,-1.61E-11,,
,3.617005,-1.61E-11,,
,3.619005,-1.56E-11,,
,3.621005,-1.47E-11,,
,3.623005,-1.42E-11,,
,3.625005,-1.39E-11,,
,3.627005,-1.41E-11,,
,3.629005,-1.45E-11,,
,3.631005,-1.52E-11,,
,3.633005,-1.53E-11,,
,3.635005,-1.48E-11,,
,3.637005,-1.39E-11,,
,3.639005,-1.30E-11,,
,3.641005,-1.26E-11,,
,3.643005,-1.26E-11,,
,3.645005,-1.33E-11,,
,3.647005,-1.38E-11,,
,3.649005,-1.43E-11,,
,3.651005,-1.40E-11,,
,3.653005,-1.36E-11,,
,3.655005,-1.26E-11,,
,3.657005,-1.19E-11,,
,3.659005,-1.17E-11,,
,3.661005,-1.22E-11,,
,3.663005,-1.30E-11,,
,3.665005,-1.37E-11,,
,3.667005,-1.39E-11,,
,3.669005,-1.32E-11,,
,3.671005,-1.25E-11,,
,3.673005,-1.15E-11,,
,3.675005,-1.13E-11,,
,3.677005,-1.15E-11,,
,3.679005,-1.22E-11,,
,3.681005,-1.27E-11,,
,3.683005,-1.28E-11,,
,3.685005,-1.27E-11,,
,3.687005,-1.18E-11,,
,3.689005,-1.10E-11,,
,3.691005,-1.02E-11,,
,3.693005,-1.04E-11,,
,3.695005,-1.10E-11,,
,3.697005,-1.15E-11,,
,3.699005,-1.18E-11,,
,3.701005,-1.17E-11,,
,3.703005,-1.12E-11,,
,3.705005,-1.01E-11,,
,3.707005,-9.26E-12,,
,3.709005,-9.04E-12,,
,3.711005,-9.58E-12,,
,3.713005,-1.03E-11,,
,3.715005,-1.10E-11,,
,3.717005,-1.12E-11,,
,3.719005,-1.08E-11,,
,3.721005,-1.00E-11,,
,3.723005,-9.15E-12,,
,3.725005,-8.83E-12,,
,3.727005,-8.94E-12,,
,3.729005,-9.58E-12,,
,3.731005,-1.02E-11,,
,3.733005,-1.05E-11,,
,3.735005,-1.00E-11,,
,3.737005,-9.15E-12,,
,3.739005,-8.08E-12,,
,3.741005,-7.54E-12,,
,3.743005,-7.54E-12,,
,3.745005,-8.08E-12,,
,3.747005,-8.61E-12,,
,3.749005,-8.94E-12,,
,3.751005,-8.94E-12,,
,3.753005,-8.51E-12,,
,3.755005,-7.54E-12,,
,3.757005,-6.57E-12,,
,3.759005,-6.25E-12,,
,3.761005,-6.57E-12,,
,3.763005,-7.22E-12,,
,3.765005,-7.65E-12,,
,3.767005,-7.43E-12,,
,3.769005,-6.79E-12,,
,3.771005,-5.93E-12,,
,3.773005,-5.18E-12,,
,3.775005,-4.53E-12,,
,3.777005,-4.53E-12,,
,3.779005,-4.96E-12,,
,3.781005,-5.82E-12,,
,3.783005,-5.93E-12,,
,3.785005,-5.82E-12,,
,3.787005,-5.07E-12,,
,3.789005,-4.53E-12,,
,3.791005,-4.00E-12,,
,3.793005,-4.21E-12,,
,3.795005,-4.64E-12,,
,3.797005,-5.18E-12,,
,3.799005,-5.39E-12,,
,3.801005,-5.18E-12,,
,3.803005,-4.64E-12,,
,3.805005,-3.78E-12,,
,3.807005,-2.92E-12,,
,3.809005,-2.49E-12,,
,3.811005,-2.92E-12,,
,3.813005,-3.89E-12,,
,3.815005,-4.75E-12,,
,3.817005,-4.96E-12,,
,3.819005,-4.53E-12,,
,3.821005,-3.57E-12,,
,3.823005,-2.60E-12,,
,3.825005,-2.28E-12,,
,3.827005,-2.82E-12,,
,3.829005,-3.78E-12,,
,3.831005,-4.53E-12,,
,3.833005,-4.96E-12,,
,3.835005,-4.53E-12,,
,3.837005,-3.89E-12,,
,3.839005,-2.82E-12,,
,3.841005,-2.17E-12,,
,3.843005,-2.17E-12,,
,3.845005,-3.14E-12,,
,3.847005,-4.21E-12,,
,3.849005,-4.96E-12,,
,3.851005,-4.86E-12,,
,3.853005,-4.53E-12,,
,3.855005,-3.89E-12,,
,3.857005,-3.35E-12,,
,3.859005,-3.25E-12,,
,3.861005,-3.46E-12,,
,3.863005,-4.53E-12,,
,3.865005,-5.07E-12,,
,3.867005,-5.39E-12,,
,3.869005,-4.75E-12,,
,3.871005,-4.32E-12,,
,3.873005,-3.68E-12,,
,3.875005,-3.57E-12,,
,3.877005,-3.68E-12,,
,3.879005,-4.75E-12,,
,3.881005,-5.50E-12,,
,3.883005,-6.14E-12,,
,3.885005,-5.93E-12,,
,3.887005,-5.50E-12,,
,3.889005,-4.53E-12,,
,3.891005,-4.10E-12,,
,3.893005,-4.21E-12,,
,3.895005,-5.18E-12,,
,3.897005,-5.82E-12,,
,3.899005,-6.25E-12,,
,3.901005,-6.25E-12,,
,3.903005,-5.93E-12,,
,3.905005,-5.39E-12,,
,3.907005,-4.75E-12,,
,3.909005,-4.64E-12,,
,3.911005,-4.96E-12,,
,3.913005,-5.82E-12,,
,3.915005,-6.36E-12,,
,3.917005,-6.68E-12,,
,3.919005,-6.36E-12,,
,3.921005,-5.93E-12,,
,3.923005,-5.50E-12,,
,3.925005,-5.50E-12,,
,3.927005,-5.93E-12,,
,3.929005,-6.79E-12,,
,3.931005,-7.43E-12,,
,3.933005,-7.86E-12,,
,3.935005,-7.65E-12,,
,3.937005,-7.11E-12,,
,3.939005,-6.57E-12,,
,3.941005,-6.14E-12,,
,3.943005,-6.47E-12,,
,3.945005,-7.00E-12,,
,3.947005,-7.97E-12,,
,3.949005,-8.40E-12,,
,3.951005,-8.40E-12,,
,3.953005,-7.75E-12,,
,3.955005,-7.33E-12,,
,3.957005,-7.11E-12,,
,3.959005,-7.22E-12,,
,3.961005,-7.65E-12,,
,3.963005,-8.29E-12,,
,3.965005,-8.94E-12,,
,3.967005,-9.15E-12,,
,3.969005,-8.94E-12,,
,3.971005,-8.40E-12,,
,3.973005,-7.75E-12,,
,3.975005,-7.54E-12,,
,3.977005,-7.97E-12,,
,3.979005,-8.72E-12,,
,3.981005,-9.37E-12,,
,3.983005,-9.58E-12,,
,3.985005,-9.47E-12,,
,3.987005,-9.15E-12,,
,3.989005,-8.61E-12,,
,3.991005,-8.51E-12,,
,3.993005,-8.83E-12,,
,3.995005,-9.90E-12,,
,3.997005,-1.11E-11,,
,3.999005,-1.19E-11,,
,4.001005,-1.23E-11,,
,4.003005,-1.20E-11,,
,4.005005,-1.16E-11,,
,4.007005,-1.13E-11,,
,4.009005,-1.15E-11,,
,4.011005,-1.23E-11,,
,4.013005,-1.33E-11,,
,4.015005,-1.42E-11,,
,4.017005,-1.45E-11,,
,4.019005,-1.46E-11,,
,4.021005,-1.44E-11,,
,4.023005,-1.43E-11,,
,4.025005,-1.44E-11,,
,4.027005,-1.52E-11,,
,4.029005,-1.62E-11,,
,4.031005,-1.73E-11,,
,4.033005,-1.78E-11,,
,4.035005,-1.80E-11,,
,4.037005,-1.74E-11,,
,4.039005,-1.67E-11,,
,4.041005,-1.61E-11,,
,4.043005,-1.61E-11,,
,4.045005,-1.70E-11,,
,4.047005,-1.81E-11,,
,4.049005,-1.88E-11,,
,4.051005,-1.89E-11,,
,4.053005,-1.86E-11,,
,4.055005,-1.83E-11,,
,4.057005,-1.81E-11,,
,4.059005,-1.83E-11,,
,4.061005,-1.91E-11,,
,4.063005,-1.98E-11,,
,4.065005,-2.04E-11,,
,4.067005,-2.04E-11,,
,4.069005,-2.01E-11,,
,4.071005,-1.93E-11,,
,4.073005,-1.86E-11,,
,4.075005,-1.84E-11,,
,4.077005,-1.87E-11,,
,4.079005,-1.98E-11,,
,4.081005,-2.07E-11,,
,4.083005,-2.14E-11,,
,4.085005,-2.12E-11,,
,4.087005,-2.06E-11,,
,4.089005,-2.01E-11,,
,4.091005,-1.98E-11,,
,4.093005,-2.01E-11,,
,4.095005,-2.09E-11,,
,4.097005,-2.18E-11,,
,4.099005,-2.26E-11,,
,4.101005,-2.27E-11,,
,4.103005,-2.21E-11,,
,4.105005,-2.13E-11,,
,4.107005,-2.04E-11,,
,4.109005,-2.03E-11,,
,4.111005,-2.05E-11,,
,4.113005,-2.15E-11,,
,4.115005,-2.20E-11,,
,4.117005,-2.24E-11,,
,4.119005,-2.20E-11,,
,4.121005,-2.15E-11,,
,4.123005,-2.11E-11,,
,4.125005,-2.07E-11,,
,4.127005,-2.12E-11,,
,4.129005,-2.19E-11,,
,4.131005,-2.28E-11,,
,4.133005,-2.32E-11,,
,4.135005,-2.29E-11,,
,4.137005,-2.22E-11,,
,4.139005,-2.15E-11,,
,4.141005,-2.12E-11,,
,4.143005,-2.14E-11,,
,4.145005,-2.21E-11,,
,4.147005,-2.31E-11,,
,4.149005,-2.40E-11,,
,4.151005,-2.44E-11,,
,4.153005,-2.44E-11,,
,4.155005,-2.41E-11,,
,4.157005,-2.38E-11,,
,4.159005,-2.40E-11,,
,4.161005,-2.47E-11,,
,4.163005,-2.57E-11,,
,4.165005,-2.65E-11,,
,4.167005,-2.70E-11,,
,4.169005,-2.68E-11,,
,4.171005,-2.62E-11,,
,4.173005,-2.54E-11,,
,4.175005,-2.51E-11,,
,4.177005,-2.51E-11,,
,4.179005,-2.59E-11,,
,4.181005,-2.64E-11,,
,4.183005,-2.69E-11,,
,4.185005,-2.70E-11,,
,4.187005,-2.65E-11,,
,4.189005,-2.58E-11,,
,4.191005,-2.51E-11,,
,4.193005,-2.51E-11,,
,4.195005,-2.59E-11,,
,4.197005,-2.65E-11,,
,4.199005,-2.69E-11,,
,4.201005,-2.66E-11,,
,4.203005,-2.60E-11,,
,4.205005,-2.50E-11,,
,4.207005,-2.42E-11,,
,4.209005,-2.39E-11,,
,4.211005,-2.43E-11,,
,4.213005,-2.49E-11,,
,4.215005,-2.55E-11,,
,4.217005,-2.56E-11,,
,4.219005,-2.50E-11,,
,4.221005,-2.43E-11,,
,4.223005,-2.33E-11,,
,4.225005,-2.31E-11,,
,4.227005,-2.31E-11,,
,4.229005,-2.40E-11,,
,4.231005,-2.45E-11,,
,4.233005,-2.48E-11,,
,4.235005,-2.45E-11,,
,4.237005,-2.39E-11,,
,4.239005,-2.30E-11,,
,4.241005,-2.24E-11,,
,4.243005,-2.21E-11,,
,4.245005,-2.27E-11,,
,4.247005,-2.34E-11,,
,4.249005,-2.39E-11,,
,4.251005,-2.39E-11,,
,4.253005,-2.32E-11,,
,4.255005,-2.25E-11,,
,4.257005,-2.18E-11,,
,4.259005,-2.17E-11,,
,4.261005,-2.22E-11,,
,4.263005,-2.30E-11,,
,4.265005,-2.36E-11,,
,4.267005,-2.35E-11,,
,4.269005,-2.30E-11,,
,4.271005,-2.19E-11,,
,4.273005,-2.12E-11,,
,4.275005,-2.05E-11,,
,4.277005,-2.06E-11,,
,4.279005,-2.11E-11,,
,4.281005,-2.16E-11,,
,4.283005,-2.17E-11,,
,4.285005,-2.15E-11,,
,4.287005,-2.09E-11,,
,4.289005,-2.03E-11,,
,4.291005,-1.97E-11,,
,4.293005,-1.96E-11,,
,4.295005,-1.98E-11,,
,4.297005,-2.04E-11,,
,4.299005,-2.05E-11,,
,4.301005,-2.03E-11,,
,4.303005,-1.95E-11,,
,4.305005,-1.82E-11,,
,4.307005,-1.71E-11,,
,4.309005,-1.65E-11,,
,4.311005,-1.68E-11,,
,4.313005,-1.71E-11,,
,4.315005,-1.76E-11,,
,4.317005,-1.78E-11,,
,4.319005,-1.75E-11,,
,4.321005,-1.68E-11,,
,4.323005,-1.57E-11,,
,4.325005,-1.51E-11,,
,4.327005,-1.49E-11,,
,4.329005,-1.56E-11,,
,4.331005,-1.61E-11,,
,4.333005,-1.61E-11,,
,4.335005,-1.54E-11,,
,4.337005,-1.42E-11,,
,4.339005,-1.30E-11,,
,4.341005,-1.20E-11,,
,4.343005,-1.17E-11,,
,4.345005,-1.20E-11,,
,4.347005,-1.27E-11,,
,4.349005,-1.31E-11,,
,4.351005,-1.28E-11,,
,4.353005,-1.22E-11,,
,4.355005,-1.10E-11,,
,4.357005,-1.01E-11,,
,4.359005,-9.69E-12,,
,4.361005,-9.90E-12,,
,4.363005,-1.03E-11,,
,4.365005,-1.05E-11,,
,4.367005,-1.04E-11,,
,4.369005,-9.79E-12,,
,4.371005,-8.61E-12,,
,4.373005,-7.65E-12,,
,4.375005,-7.11E-12,,
,4.377005,-7.11E-12,,
,4.379005,-7.54E-12,,
,4.381005,-7.86E-12,,
,4.383005,-7.86E-12,,
,4.385005,-7.33E-12,,
,4.387005,-6.47E-12,,
,4.389005,-5.61E-12,,
,4.391005,-4.96E-12,,
,4.393005,-4.75E-12,,
,4.395005,-5.29E-12,,
,4.397005,-5.61E-12,,
,4.399005,-5.93E-12,,
,4.401005,-5.50E-12,,
,4.403005,-4.75E-12,,
,4.405005,-3.68E-12,,
,4.407005,-2.92E-12,,
,4.409005,-2.92E-12,,
,4.411005,-3.14E-12,,
,4.413005,-3.57E-12,,
,4.415005,-3.68E-12,,
,4.417005,-3.78E-12,,
,4.419005,-3.35E-12,,
,4.421005,-2.60E-12,,
,4.423005,-1.53E-12,,
,4.425005,-8.84E-13,,
,4.427005,-1.10E-12,,
,4.429005,-1.74E-12,,
,4.431005,-2.49E-12,,
,4.433005,-2.60E-12,,
,4.435005,-2.39E-12,,
,4.437005,-1.64E-12,,
,4.439005,-6.69E-13,,
,4.441005,-2.53E-14,,
,4.443005,1.89E-13,,
,4.445005,-2.40E-13,,
,4.447005,-6.69E-13,,
,4.449005,-9.92E-13,,
,4.451005,-8.84E-13,,
,4.453005,-3.47E-13,,
,4.455005,6.19E-13,,
,4.457005,1.69E-12,,
,4.459005,2.01E-12,,
,4.461005,1.69E-12,,
,4.463005,7.26E-13,,
,4.465005,1.89E-13,,
,4.467005,8.20E-14,,
,4.469005,6.19E-13,,
,4.471005,1.48E-12,,
,4.473005,2.44E-12,,
,4.475005,2.98E-12,,
,4.477005,3.09E-12,,
,4.479005,2.44E-12,,
,4.481005,1.91E-12,,
,4.483005,1.48E-12,,
,4.485005,1.59E-12,,
,4.487005,2.34E-12,,
,4.489005,3.41E-12,,
,4.491005,4.38E-12,,
,4.493005,4.48E-12,,
,4.495005,3.95E-12,,
,4.497005,3.09E-12,,
,4.499005,2.34E-12,,
,4.501005,2.34E-12,,
,4.503005,2.98E-12,,
,4.505005,4.05E-12,,
,4.507005,4.81E-12,,
,4.509005,5.13E-12,,
,4.511005,4.81E-12,,
,4.513005,4.27E-12,,
,4.515005,3.62E-12,,
,4.517005,3.62E-12,,
,4.519005,4.05E-12,,
,4.521005,5.13E-12,,
,4.523005,5.99E-12,,
,4.525005,6.31E-12,,
,4.527005,6.09E-12,,
,4.529005,5.24E-12,,
,4.531005,4.48E-12,,
,4.533005,4.05E-12,,
,4.535005,4.48E-12,,
,4.537005,5.13E-12,,
,4.539005,5.99E-12,,
,4.541005,6.52E-12,,
,4.543005,6.63E-12,,
,4.545005,6.09E-12,,
,4.547005,5.24E-12,,
,4.549005,4.70E-12,,
,4.551005,4.70E-12,,
,4.553005,5.24E-12,,
,4.555005,5.99E-12,,
,4.557005,6.42E-12,,
,4.559005,6.42E-12,,
,4.561005,5.88E-12,,
,4.563005,5.13E-12,,
,4.565005,4.38E-12,,
,4.567005,4.05E-12,,
,4.569005,4.38E-12,,
,4.571005,5.24E-12,,
,4.573005,6.20E-12,,
,4.575005,6.63E-12,,
,4.577005,6.31E-12,,
,4.579005,5.66E-12,,
,4.581005,5.13E-12,,
,4.583005,4.91E-12,,
,4.585005,5.13E-12,,
,4.587005,5.56E-12,,
,4.589005,6.20E-12,,
,4.591005,6.74E-12,,
,4.593005,6.63E-12,,
,4.595005,6.09E-12,,
,4.597005,5.13E-12,,
,4.599005,4.59E-12,,
,4.601005,4.70E-12,,
,4.603005,5.34E-12,,
,4.605005,6.20E-12,,
,4.607005,6.74E-12,,
,4.609005,6.74E-12,,
,4.611005,6.42E-12,,
,4.613005,5.77E-12,,
,4.615005,5.24E-12,,
,4.617005,4.81E-12,,
,4.619005,5.13E-12,,
,4.621005,5.66E-12,,
,4.623005,6.52E-12,,
,4.625005,6.52E-12,,
,4.627005,6.20E-12,,
,4.629005,5.13E-12,,
,4.631005,4.16E-12,,
,4.633005,3.62E-12,,
,4.635005,3.84E-12,,
,4.637005,4.59E-12,,
,4.639005,5.45E-12,,
,4.641005,5.99E-12,,
,4.643005,5.99E-12,,
,4.645005,5.24E-12,,
,4.647005,4.27E-12,,
,4.649005,3.62E-12,,
,4.651005,3.41E-12,,
,4.653005,3.73E-12,,
,4.655005,4.27E-12,,
,4.657005,4.70E-12,,
,4.659005,4.59E-12,,
,4.661005,3.62E-12,,
,4.663005,2.77E-12,,
,4.665005,2.12E-12,,
,4.667005,2.12E-12,,
,4.669005,2.23E-12,,
,4.671005,2.44E-12,,
,4.673005,3.09E-12,,
,4.675005,3.52E-12,,
,4.677005,3.30E-12,,
,4.679005,2.23E-12,,
,4.681005,1.05E-12,,
,4.683005,5.11E-13,,
,4.685005,5.11E-13,,
,4.687005,8.34E-13,,
,4.689005,1.48E-12,,
,4.691005,1.91E-12,,
,4.693005,1.59E-12,,
,4.695005,2.97E-13,,
,4.697005,-1.10E-12,,
,4.699005,-1.85E-12,,
,4.701005,-1.85E-12,,
,4.703005,-1.42E-12,,
,4.705005,-7.77E-13,,
,4.707005,-3.47E-13,,
,4.709005,-3.47E-13,,
,4.711005,-8.84E-13,,
,4.713005,-1.96E-12,,
,4.715005,-3.03E-12,,
,4.717005,-3.57E-12,,
,4.719005,-3.46E-12,,
,4.721005,-2.92E-12,,
,4.723005,-2.71E-12,,
,4.725005,-2.60E-12,,
,4.727005,-3.35E-12,,
,4.729005,-4.43E-12,,
,4.731005,-5.61E-12,,
,4.733005,-6.14E-12,,
,4.735005,-6.14E-12,,
,4.737005,-5.39E-12,,
,4.739005,-4.64E-12,,
,4.741005,-4.10E-12,,
,4.743005,-4.53E-12,,
,4.745005,-5.50E-12,,
,4.747005,-6.47E-12,,
,4.749005,-7.33E-12,,
,4.751005,-7.65E-12,,
,4.753005,-7.54E-12,,
,4.755005,-7.00E-12,,
,4.757005,-6.68E-12,,
,4.759005,-6.79E-12,,
,4.761005,-7.54E-12,,
,4.763005,-8.40E-12,,
,4.765005,-9.15E-12,,
,4.767005,-9.47E-12,,
,4.769005,-9.26E-12,,
,4.771005,-8.61E-12,,
,4.773005,-7.97E-12,,
,4.775005,-7.65E-12,,
,4.777005,-8.29E-12,,
,4.779005,-8.94E-12,,
,4.781005,-1.00E-11,,
,4.783005,-1.02E-11,,
,4.785005,-1.05E-11,,
,4.787005,-9.79E-12,,
,4.789005,-9.37E-12,,
,4.791005,-8.83E-12,,
,4.793005,-9.15E-12,,
,4.795005,-9.79E-12,,
,4.797005,-1.11E-11,,
,4.799005,-1.20E-11,,
,4.801005,-1.26E-11,,
,4.803005,-1.20E-11,,
,4.805005,-1.13E-11,,
,4.807005,-1.08E-11,,
,4.809005,-1.07E-11,,
,4.811005,-1.10E-11,,
,4.813005,-1.18E-11,,
,4.815005,-1.28E-11,,
,4.817005,-1.34E-11,,
,4.819005,-1.31E-11,,
,4.821005,-1.25E-11,,
,4.823005,-1.18E-11,,
,4.825005,-1.17E-11,,
,4.827005,-1.23E-11,,
,4.829005,-1.33E-11,,
,4.831005,-1.44E-11,,
,4.833005,-1.49E-11,,
,4.835005,-1.49E-11,,
,4.837005,-1.42E-11,,
,4.839005,-1.33E-11,,
,4.841005,-1.28E-11,,
,4.843005,-1.30E-11,,
,4.845005,-1.37E-11,,
,4.847005,-1.45E-11,,
,4.849005,-1.51E-11,,
,4.851005,-1.52E-11,,
,4.853005,-1.49E-11,,
,4.855005,-1.45E-11,,
,4.857005,-1.41E-11,,
,4.859005,-1.40E-11,,
,4.861005,-1.45E-11,,
,4.863005,-1.54E-11,,
,4.865005,-1.58E-11,,
,4.867005,-1.59E-11,,
,4.869005,-1.55E-11,,
,4.871005,-1.49E-11,,
,4.873005,-1.41E-11,,
,4.875005,-1.39E-11,,
,4.877005,-1.39E-11,,
,4.879005,-1.46E-11,,
,4.881005,-1.51E-11,,
,4.883005,-1.54E-11,,
,4.885005,-1.52E-11,,
,4.887005,-1.48E-11,,
,4.889005,-1.41E-11,,
,4.891005,-1.34E-11,,
,4.893005,-1.32E-11,,
,4.895005,-1.39E-11,,
,4.897005,-1.46E-11,,
,4.899005,-1.53E-11,,
,4.901005,-1.51E-11,,
,4.903005,-1.43E-11,,
,4.905005,-1.32E-11,,
,4.907005,-1.24E-11,,
,4.909005,-1.20E-11,,
,4.911005,-1.20E-11,,
,4.913005,-1.26E-11,,
,4.915005,-1.29E-11,,
,4.917005,-1.31E-11,,
,4.919005,-1.26E-11,,
,4.921005,-1.19E-11,,
,4.923005,-1.12E-11,,
,4.925005,-1.11E-11,,
,4.927005,-1.15E-11,,
,4.929005,-1.22E-11,,
,4.931005,-1.27E-11,,
,4.933005,-1.28E-11,,
,4.935005,-1.26E-11,,
,4.937005,-1.18E-11,,
,4.939005,-1.08E-11,,
,4.941005,-1.00E-11,,
,4.943005,-1.00E-11,,
,4.945005,-1.07E-11,,
,4.947005,-1.14E-11,,
,4.949005,-1.19E-11,,
,4.951005,-1.19E-11,,
,4.953005,-1.14E-11,,
,4.955005,-1.07E-11,,
,4.957005,-1.02E-11,,
,4.959005,-1.02E-11,,
,4.961005,-1.08E-11,,
,4.963005,-1.15E-11,,
,4.965005,-1.23E-11,,
,4.967005,-1.25E-11,,
,4.969005,-1.20E-11,,
,4.971005,-1.12E-11,,
,4.973005,-1.02E-11,,
,4.975005,-9.79E-12,,
,4.977005,-1.00E-11,,
,4.979005,-1.07E-11,,
,4.981005,-1.14E-11,,
,4.983005,-1.18E-11,,
,4.985005,-1.18E-11,,
,4.987005,-1.12E-11,,
,4.989005,-1.04E-11,,
,4.991005,-1.01E-11,,
,4.993005,-1.05E-11,,
,4.995005,-1.14E-11,,
,4.997005,-1.20E-11,,
,4.999005,-1.26E-11,,
,5.001005,-1.27E-11,,
,5.003005,-1.25E-11,,
,5.005005,-1.17E-11,,
,5.007005,-1.11E-11,,
,5.009005,-1.09E-11,,
,5.011005,-1.17E-11,,
,5.013005,-1.28E-11,,
,5.015005,-1.40E-11,,
,5.017005,-1.43E-11,,
,5.019005,-1.42E-11,,
,5.021005,-1.36E-11,,
,5.023005,-1.29E-11,,
,5.025005,-1.26E-11,,
,5.027005,-1.31E-11,,
,5.029005,-1.40E-11,,
,5.031005,-1.49E-11,,
,5.033005,-1.54E-11,,
,5.035005,-1.53E-11,,
,5.037005,-1.47E-11,,
,5.039005,-1.42E-11,,
,5.041005,-1.39E-11,,
,5.043005,-1.40E-11,,
,5.045005,-1.44E-11,,
,5.047005,-1.53E-11,,
,5.049005,-1.59E-11,,
,5.051005,-1.60E-11,,
,5.053005,-1.58E-11,,
,5.055005,-1.51E-11,,
,5.057005,-1.47E-11,,
,5.059005,-1.44E-11,,
,5.061005,-1.51E-11,,
,5.063005,-1.57E-11,,
,5.065005,-1.65E-11,,
,5.067005,-1.67E-11,,
,5.069005,-1.65E-11,,
,5.071005,-1.58E-11,,
,5.073005,-1.51E-11,,
,5.075005,-1.47E-11,,
,5.077005,-1.51E-11,,
,5.079005,-1.57E-11,,
,5.081005,-1.66E-11,,
,5.083005,-1.69E-11,,
,5.085005,-1.71E-11,,
,5.087005,-1.67E-11,,
,5.089005,-1.59E-11,,
,5.091005,-1.55E-11,,
,5.093005,-1.55E-11,,
,5.095005,-1.65E-11,,
,5.097005,-1.72E-11,,
,5.099005,-1.77E-11,,
,5.101005,-1.77E-11,,
,5.103005,-1.72E-11,,
,5.105005,-1.65E-11,,
,5.107005,-1.57E-11,,
,5.109005,-1.56E-11,,
,5.111005,-1.59E-11,,
,5.113005,-1.66E-11,,
,5.115005,-1.71E-11,,
,5.117005,-1.74E-11,,
,5.119005,-1.72E-11,,
,5.121005,-1.63E-11,,
,5.123005,-1.56E-11,,
,5.125005,-1.52E-11,,
,5.127005,-1.56E-11,,
,5.129005,-1.62E-11,,
,5.131005,-1.70E-11,,
,5.133005,-1.74E-11,,
,5.135005,-1.73E-11,,
,5.137005,-1.67E-11,,
,5.139005,-1.58E-11,,
,5.141005,-1.52E-11,,
,5.143005,-1.51E-11,,
,5.145005,-1.56E-11,,
,5.147005,-1.63E-11,,
,5.149005,-1.71E-11,,
,5.151005,-1.71E-11,,
,5.153005,-1.67E-11,,
,5.155005,-1.57E-11,,
,5.157005,-1.52E-11,,
,5.159005,-1.52E-11,,
,5.161005,-1.58E-11,,
,5.163005,-1.67E-11,,
,5.165005,-1.74E-11,,
,5.167005,-1.76E-11,,
,5.169005,-1.71E-11,,
,5.171005,-1.62E-11,,
,5.173005,-1.56E-11,,
,5.175005,-1.54E-11,,
,5.177005,-1.56E-11,,
,5.179005,-1.62E-11,,
,5.181005,-1.70E-11,,
,5.183005,-1.72E-11,,
,5.185005,-1.69E-11,,
,5.187005,-1.62E-11,,
,5.189005,-1.56E-11,,
,5.191005,-1.51E-11,,
,5.193005,-1.52E-11,,
,5.195005,-1.59E-11,,
,5.197005,-1.68E-11,,
,5.199005,-1.74E-11,,
,5.201005,-1.74E-11,,
,5.203005,-1.70E-11,,
,5.205005,-1.61E-11,,
,5.207005,-1.53E-11,,
,5.209005,-1.48E-11,,
,5.211005,-1.53E-11,,
,5.213005,-1.59E-11,,
,5.215005,-1.69E-11,,
,5.217005,-1.68E-11,,
,5.219005,-1.63E-11,,
,5.221005,-1.57E-11,,
,5.223005,-1.52E-11,,
,5.225005,-1.51E-11,,
,5.227005,-1.52E-11,,
,5.229005,-1.59E-11,,
,5.231005,-1.67E-11,,
,5.233005,-1.70E-11,,
,5.235005,-1.68E-11,,
,5.237005,-1.61E-11,,
,5.239005,-1.55E-11,,
,5.241005,-1.51E-11,,
,5.243005,-1.49E-11,,
,5.245005,-1.55E-11,,
,5.247005,-1.59E-11,,
,5.249005,-1.65E-11,,
,5.251005,-1.61E-11,,
,5.253005,-1.58E-11,,
,5.255005,-1.54E-11,,
,5.257005,-1.52E-11,,
,5.259005,-1.54E-11,,
,5.261005,-1.59E-11,,
,5.263005,-1.69E-11,,
,5.265005,-1.77E-11,,
,5.267005,-1.78E-11,,
,5.269005,-1.73E-11,,
,5.271005,-1.63E-11,,
,5.273005,-1.56E-11,,
,5.275005,-1.51E-11,,
,5.277005,-1.51E-11,,
,5.279005,-1.57E-11,,
,5.281005,-1.67E-11,,
,5.283005,-1.74E-11,,
,5.285005,-1.75E-11,,
,5.287005,-1.72E-11,,
,5.289005,-1.66E-11,,
,5.291005,-1.62E-11,,
,5.293005,-1.62E-11,,
,5.295005,-1.71E-11,,
,5.297005,-1.80E-11,,
,5.299005,-1.89E-11,,
,5.301005,-1.89E-11,,
,5.303005,-1.86E-11,,
,5.305005,-1.75E-11,,
,5.307005,-1.68E-11,,
,5.309005,-1.62E-11,,
,5.311005,-1.66E-11,,
,5.313005,-1.72E-11,,
,5.315005,-1.78E-11,,
,5.317005,-1.83E-11,,
,5.319005,-1.80E-11,,
,5.321005,-1.76E-11,,
,5.323005,-1.70E-11,,
,5.325005,-1.68E-11,,
,5.327005,-1.70E-11,,
,5.329005,-1.75E-11,,
,5.331005,-1.84E-11,,
,5.333005,-1.88E-11,,
,5.335005,-1.86E-11,,
,5.337005,-1.77E-11,,
,5.339005,-1.67E-11,,
,5.341005,-1.62E-11,,
,5.343005,-1.65E-11,,
,5.345005,-1.71E-11,,
,5.347005,-1.78E-11,,
,5.349005,-1.82E-11,,
,5.351005,-1.82E-11,,
,5.353005,-1.76E-11,,
,5.355005,-1.70E-11,,
,5.357005,-1.63E-11,,
,5.359005,-1.65E-11,,
,5.361005,-1.71E-11,,
,5.363005,-1.82E-11,,
,5.365005,-1.89E-11,,
,5.367005,-1.93E-11,,
,5.369005,-1.90E-11,,
,5.371005,-1.83E-11,,
,5.373005,-1.74E-11,,
,5.375005,-1.69E-11,,
,5.377005,-1.72E-11,,
,5.379005,-1.82E-11,,
,5.381005,-1.92E-11,,
,5.383005,-1.98E-11,,
,5.385005,-1.96E-11,,
,5.387005,-1.92E-11,,
,5.389005,-1.87E-11,,
,5.391005,-1.86E-11,,
,5.393005,-1.89E-11,,
,5.395005,-1.98E-11,,
,5.397005,-2.05E-11,,
,5.399005,-2.13E-11,,
,5.401005,-2.14E-11,,
,5.403005,-2.12E-11,,
,5.405005,-2.04E-11,,
,5.407005,-1.99E-11,,
,5.409005,-1.98E-11,,
,5.411005,-2.01E-11,,
,5.413005,-2.07E-11,,
,5.415005,-2.14E-11,,
,5.417005,-2.17E-11,,
,5.419005,-2.15E-11,,
,5.421005,-2.11E-11,,
,5.423005,-2.05E-11,,
,5.425005,-2.05E-11,,
,5.427005,-2.09E-11,,
,5.429005,-2.18E-11,,
,5.431005,-2.27E-11,,
,5.433005,-2.30E-11,,
,5.435005,-2.29E-11,,
,5.437005,-2.22E-11,,
,5.439005,-2.13E-11,,
,5.441005,-2.05E-11,,
,5.443005,-2.06E-11,,
,5.445005,-2.13E-11,,
,5.447005,-2.22E-11,,
,5.449005,-2.29E-11,,
,5.451005,-2.34E-11,,
,5.453005,-2.32E-11,,
,5.455005,-2.26E-11,,
,5.457005,-2.21E-11,,
,5.459005,-2.21E-11,,
,5.461005,-2.30E-11,,
,5.463005,-2.40E-11,,
,5.465005,-2.48E-11,,
,5.467005,-2.51E-11,,
,5.469005,-2.50E-11,,
,5.471005,-2.44E-11,,
,5.473005,-2.41E-11,,
,5.475005,-2.38E-11,,
,5.477005,-2.43E-11,,
,5.479005,-2.50E-11,,
,5.481005,-2.61E-11,,
,5.483005,-2.70E-11,,
,5.485005,-2.69E-11,,
,5.487005,-2.64E-11,,
,5.489005,-2.58E-11,,
,5.491005,-2.56E-11,,
,5.493005,-2.60E-11,,
,5.495005,-2.69E-11,,
,5.497005,-2.80E-11,,
,5.499005,-2.87E-11,,
,5.501005,-2.90E-11,,
,5.503005,-2.87E-11,,
,5.505005,-2.82E-11,,
,5.507005,-2.75E-11,,
,5.509005,-2.72E-11,,
,5.511005,-2.74E-11,,
,5.513005,-2.78E-11,,
,5.515005,-2.86E-11,,
,5.517005,-2.89E-11,,
,5.519005,-2.88E-11,,
,5.521005,-2.80E-11,,
,5.523005,-2.74E-11,,
,5.525005,-2.73E-11,,
,5.527005,-2.76E-11,,
,5.529005,-2.86E-11,,
,5.531005,-2.93E-11,,
,5.533005,-2.99E-11,,
,5.535005,-2.98E-11,,
,5.537005,-2.92E-11,,
,5.539005,-2.84E-11,,
,5.541005,-2.76E-11,,
,5.543005,-2.74E-11,,
,5.545005,-2.79E-11,,
,5.547005,-2.87E-11,,
,5.549005,-2.93E-11,,
,5.551005,-2.94E-11,,
,5.553005,-2.90E-11,,
,5.555005,-2.82E-11,,
,5.557005,-2.75E-11,,
,5.559005,-2.75E-11,,
,5.561005,-2.79E-11,,
,5.563005,-2.89E-11,,
,5.565005,-2.93E-11,,
,5.567005,-2.98E-11,,
,5.569005,-2.91E-11,,
,5.571005,-2.83E-11,,
,5.573005,-2.74E-11,,
,5.575005,-2.68E-11,,
,5.577005,-2.70E-11,,
,5.579005,-2.73E-11,,
,5.581005,-2.80E-11,,
,5.583005,-2.82E-11,,
,5.585005,-2.78E-11,,
,5.587005,-2.71E-11,,
,5.589005,-2.61E-11,,
,5.591005,-2.56E-11,,
,5.593005,-2.55E-11,,
,5.595005,-2.61E-11,,
,5.597005,-2.66E-11,,
,5.599005,-2.71E-11,,
,5.601005,-2.68E-11,,
,5.603005,-2.60E-11,,
,5.605005,-2.48E-11,,
,5.607005,-2.40E-11,,
,5.609005,-2.34E-11,,
,5.611005,-2.36E-11,,
,5.613005,-2.41E-11,,
,5.615005,-2.45E-11,,
,5.617005,-2.46E-11,,
,5.619005,-2.43E-11,,
,5.621005,-2.35E-11,,
,5.623005,-2.27E-11,,
,5.625005,-2.22E-11,,
,5.627005,-2.24E-11,,
,5.629005,-2.29E-11,,
,5.631005,-2.33E-11,,
,5.633005,-2.35E-11,,
,5.635005,-2.31E-11,,
,5.637005,-2.24E-11,,
,5.639005,-2.13E-11,,
,5.641005,-2.07E-11,,
,5.643005,-2.05E-11,,
,5.645005,-2.10E-11,,
,5.647005,-2.14E-11,,
,5.649005,-2.17E-11,,
,5.651005,-2.16E-11,,
,5.653005,-2.11E-11,,
,5.655005,-2.03E-11,,
,5.657005,-1.99E-11,,
,5.659005,-1.96E-11,,
,5.661005,-2.00E-11,,
,5.663005,-2.04E-11,,
,5.665005,-2.12E-11,,
,5.667005,-2.12E-11,,
,5.669005,-2.09E-11,,
,5.671005,-1.99E-11,,
,5.673005,-1.89E-11,,
,5.675005,-1.82E-11,,
,5.677005,-1.81E-11,,
,5.679005,-1.86E-11,,
,5.681005,-1.92E-11,,
,5.683005,-1.97E-11,,
,5.685005,-1.93E-11,,
,5.687005,-1.87E-11,,
,5.689005,-1.76E-11,,
,5.691005,-1.70E-11,,
,5.693005,-1.70E-11,,
,5.695005,-1.75E-11,,
,5.697005,-1.84E-11,,
,5.699005,-1.87E-11,,
,5.701005,-1.89E-11,,
,5.703005,-1.84E-11,,
,5.705005,-1.77E-11,,
,5.707005,-1.67E-11,,
,5.709005,-1.65E-11,,
,5.711005,-1.66E-11,,
,5.713005,-1.73E-11,,
,5.715005,-1.78E-11,,
,5.717005,-1.82E-11,,
,5.719005,-1.78E-11,,
,5.721005,-1.69E-11,,
,5.723005,-1.59E-11,,
,5.725005,-1.57E-11,,
,5.727005,-1.63E-11,,
,5.729005,-1.73E-11,,
,5.731005,-1.83E-11,,
,5.733005,-1.86E-11,,
,5.735005,-1.87E-11,,
,5.737005,-1.81E-11,,
,5.739005,-1.76E-11,,
,5.741005,-1.69E-11,,
,5.743005,-1.70E-11,,
,5.745005,-1.74E-11,,
,5.747005,-1.83E-11,,
,5.749005,-1.89E-11,,
,5.751005,-1.89E-11,,
,5.753005,-1.86E-11,,
,5.755005,-1.80E-11,,
,5.757005,-1.76E-11,,
,5.759005,-1.78E-11,,
,5.761005,-1.84E-11,,
,5.763005,-1.96E-11,,
,5.765005,-2.05E-11,,
,5.767005,-2.11E-11,,
,5.769005,-2.06E-11,,
,5.771005,-1.99E-11,,
,5.773005,-1.91E-11,,
,5.775005,-1.90E-11,,
,5.777005,-1.92E-11,,
,5.779005,-2.00E-11,,
,5.781005,-2.10E-11,,
,5.783005,-2.15E-11,,
,5.785005,-2.14E-11,,
,5.787005,-2.06E-11,,
,5.789005,-1.98E-11,,
,5.791005,-1.96E-11,,
,5.793005,-1.98E-11,,
,5.795005,-2.09E-11,,
,5.797005,-2.17E-11,,
,5.799005,-2.22E-11,,
,5.801005,-2.22E-11,,
,5.803005,-2.18E-11,,
,5.805005,-2.10E-11,,
,5.807005,-2.01E-11,,
,5.809005,-1.98E-11,,
,5.811005,-2.01E-11,,
,5.813005,-2.07E-11,,
,5.815005,-2.11E-11,,
,5.817005,-2.12E-11,,
,5.819005,-2.06E-11,,
,5.821005,-2.01E-11,,
,5.823005,-1.92E-11,,
,5.825005,-1.90E-11,,
,5.827005,-1.93E-11,,
,5.829005,-2.02E-11,,
,5.831005,-2.11E-11,,
,5.833005,-2.14E-11,,
,5.835005,-2.13E-11,,
,5.837005,-2.05E-11,,
,5.839005,-1.95E-11,,
,5.841005,-1.86E-11,,
,5.843005,-1.83E-11,,
,5.845005,-1.87E-11,,
,5.847005,-1.91E-11,,
,5.849005,-1.96E-11,,
,5.851005,-1.92E-11,,
,5.853005,-1.89E-11,,
,5.855005,-1.80E-11,,
,5.857005,-1.72E-11,,
,5.859005,-1.69E-11,,
,5.861005,-1.73E-11,,
,5.863005,-1.82E-11,,
,5.865005,-1.86E-11,,
,5.867005,-1.86E-11,,
,5.869005,-1.81E-11,,
,5.871005,-1.71E-11,,
,5.873005,-1.59E-11,,
,5.875005,-1.51E-11,,
,5.877005,-1.51E-11,,
,5.879005,-1.56E-11,,
,5.881005,-1.63E-11,,
,5.883005,-1.65E-11,,
,5.885005,-1.61E-11,,
,5.887005,-1.54E-11,,
,5.889005,-1.46E-11,,
,5.891005,-1.41E-11,,
,5.893005,-1.40E-11,,
,5.895005,-1.45E-11,,
,5.897005,-1.54E-11,,
,5.899005,-1.59E-11,,
,5.901005,-1.59E-11,,
,5.903005,-1.54E-11,,
,5.905005,-1.44E-11,,
,5.907005,-1.33E-11,,
,5.909005,-1.27E-11,,
,5.911005,-1.30E-11,,
,5.913005,-1.37E-11,,
,5.915005,-1.43E-11,,
,5.917005,-1.44E-11,,
,5.919005,-1.43E-11,,
,5.921005,-1.36E-11,,
,5.923005,-1.30E-11,,
,5.925005,-1.26E-11,,
,5.927005,-1.29E-11,,
,5.929005,-1.34E-11,,
,5.931005,-1.42E-11,,
,5.933005,-1.44E-11,,
,5.935005,-1.43E-11,,
,5.937005,-1.36E-11,,
,5.939005,-1.28E-11,,
,5.941005,-1.20E-11,,
,5.943005,-1.19E-11,,
,5.945005,-1.26E-11,,
,5.947005,-1.36E-11,,
,5.949005,-1.44E-11,,
,5.951005,-1.45E-11,,
,5.953005,-1.40E-11,,
,5.955005,-1.30E-11,,
,5.957005,-1.26E-11,,
,5.959005,-1.25E-11,,
,5.961005,-1.32E-11,,
,5.963005,-1.40E-11,,
,5.965005,-1.48E-11,,
,5.967005,-1.52E-11,,
,5.969005,-1.52E-11,,
,5.971005,-1.44E-11,,
,5.973005,-1.37E-11,,
,5.975005,-1.30E-11,,
,5.977005,-1.33E-11,,
,5.979005,-1.40E-11,,
,5.981005,-1.47E-11,,
,5.983005,-1.51E-11,,
,5.985005,-1.51E-11,,
,5.987005,-1.46E-11,,
,5.989005,-1.42E-11,,
,5.991005,-1.39E-11,,
,5.993005,-1.41E-11,,
,5.995005,-1.48E-11,,
,5.997005,-1.55E-11,,
,5.999005,-1.62E-11,,
,6.001005,-1.62E-11,,
,6.003005,-1.59E-11,,
,6.005005,-1.51E-11,,
,6.007005,-1.45E-11,,
,6.009005,-1.43E-11,,
,6.011005,-1.47E-11,,
,6.013005,-1.53E-11,,
,6.015005,-1.60E-11,,
,6.017005,-1.62E-11,,
,6.019005,-1.60E-11,,
,6.021005,-1.53E-11,,
,6.023005,-1.46E-11,,
,6.025005,-1.44E-11,,
,6.027005,-1.51E-11,,
,6.029005,-1.58E-11,,
,6.031005,-1.67E-11,,
,6.033005,-1.71E-11,,
,6.035005,-1.69E-11,,
,6.037005,-1.63E-11,,
,6.039005,-1.54E-11,,
,6.041005,-1.48E-11,,
,6.043005,-1.45E-11,,
,6.045005,-1.51E-11,,
,6.047005,-1.59E-11,,
,6.049005,-1.67E-11,,
,6.051005,-1.68E-11,,
,6.053005,-1.62E-11,,
,6.055005,-1.55E-11,,
,6.057005,-1.47E-11,,
,6.059005,-1.48E-11,,
,6.061005,-1.54E-11,,
,6.063005,-1.61E-11,,
,6.065005,-1.68E-11,,
,6.067005,-1.71E-11,,
,6.069005,-1.70E-11,,
,6.071005,-1.62E-11,,
,6.073005,-1.52E-11,,
,6.075005,-1.47E-11,,
,6.077005,-1.48E-11,,
,6.079005,-1.56E-11,,
,6.081005,-1.61E-11,,
,6.083005,-1.65E-11,,
,6.085005,-1.62E-11,,
,6.087005,-1.55E-11,,
,6.089005,-1.47E-11,,
,6.091005,-1.42E-11,,
,6.093005,-1.41E-11,,
,6.095005,-1.45E-11,,
,6.097005,-1.51E-11,,
,6.099005,-1.58E-11,,
,6.101005,-1.58E-11,,
,6.103005,-1.53E-11,,
,6.105005,-1.41E-11,,
,6.107005,-1.29E-11,,
,6.109005,-1.24E-11,,
,6.111005,-1.26E-11,,
,6.113005,-1.31E-11,,
,6.115005,-1.38E-11,,
,6.117005,-1.39E-11,,
,6.119005,-1.36E-11,,
,6.121005,-1.28E-11,,
,6.123005,-1.18E-11,,
,6.125005,-1.13E-11,,
,6.127005,-1.12E-11,,
,6.129005,-1.18E-11,,
,6.131005,-1.24E-11,,
,6.133005,-1.28E-11,,
,6.135005,-1.24E-11,,
,6.137005,-1.16E-11,,
,6.139005,-1.04E-11,,
,6.141005,-9.79E-12,,
,6.143005,-9.58E-12,,
,6.145005,-1.02E-11,,
,6.147005,-1.10E-11,,
,6.149005,-1.15E-11,,
,6.151005,-1.13E-11,,
,6.153005,-1.08E-11,,
,6.155005,-1.01E-11,,
,6.157005,-9.47E-12,,
,6.159005,-9.15E-12,,
,6.161005,-9.15E-12,,
,6.163005,-9.69E-12,,
,6.165005,-1.04E-11,,
,6.167005,-1.09E-11,,
,6.169005,-1.07E-11,,
,6.171005,-9.79E-12,,
,6.173005,-8.94E-12,,
,6.175005,-8.51E-12,,
,6.177005,-8.72E-12,,
,6.179005,-9.37E-12,,
,6.181005,-1.00E-11,,
,6.183005,-1.02E-11,,
,6.185005,-9.90E-12,,
,6.187005,-9.15E-12,,
,6.189005,-8.18E-12,,
,6.191005,-7.65E-12,,
,6.193005,-7.86E-12,,
,6.195005,-8.61E-12,,
,6.197005,-9.37E-12,,
,6.199005,-9.90E-12,,
,6.201005,-1.00E-11,,
,6.203005,-9.79E-12,,
,6.205005,-9.04E-12,,
,6.207005,-8.51E-12,,
,6.209005,-8.40E-12,,
,6.211005,-8.72E-12,,
,6.213005,-9.26E-12,,
,6.215005,-9.90E-12,,
,6.217005,-1.02E-11,,
,6.219005,-1.01E-11,,
,6.221005,-9.26E-12,,
,6.223005,-8.61E-12,,
,6.225005,-7.97E-12,,
,6.227005,-8.51E-12,,
,6.229005,-9.15E-12,,
,6.231005,-1.04E-11,,
,6.233005,-1.10E-11,,
,6.235005,-1.12E-11,,
,6.237005,-1.05E-11,,
,6.239005,-9.79E-12,,
,6.241005,-9.26E-12,,
,6.243005,-9.26E-12,,
,6.245005,-9.58E-12,,
,6.247005,-1.00E-11,,
,6.249005,-1.03E-11,,
,6.251005,-1.03E-11,,
,6.253005,-1.00E-11,,
,6.255005,-9.47E-12,,
,6.257005,-9.26E-12,,
,6.259005,-9.26E-12,,
,6.261005,-1.00E-11,,
,6.263005,-1.07E-11,,
,6.265005,-1.16E-11,,
,6.267005,-1.19E-11,,
,6.269005,-1.16E-11,,
,6.271005,-1.08E-11,,
,6.273005,-9.90E-12,,
,6.275005,-9.69E-12,,
,6.277005,-9.90E-12,,
,6.279005,-1.07E-11,,
,6.281005,-1.14E-11,,
,6.283005,-1.19E-11,,
,6.285005,-1.18E-11,,
,6.287005,-1.13E-11,,
,6.289005,-1.05E-11,,
,6.291005,-1.02E-11,,
,6.293005,-1.05E-11,,
,6.295005,-1.15E-11,,
,6.297005,-1.26E-11,,
,6.299005,-1.34E-11,,
,6.301005,-1.38E-11,,
,6.303005,-1.34E-11,,
,6.305005,-1.27E-11,,
,6.307005,-1.22E-11,,
,6.309005,-1.22E-11,,
,6.311005,-1.27E-11,,
,6.313005,-1.36E-11,,
,6.315005,-1.41E-11,,
,6.317005,-1.43E-11,,
,6.319005,-1.39E-11,,
,6.321005,-1.33E-11,,
,6.323005,-1.28E-11,,
,6.325005,-1.27E-11,,
,6.327005,-1.31E-11,,
,6.329005,-1.42E-11,,
,6.331005,-1.49E-11,,
,6.333005,-1.58E-11,,
,6.335005,-1.56E-11,,
,6.337005,-1.53E-11,,
,6.339005,-1.44E-11,,
,6.341005,-1.40E-11,,
,6.343005,-1.39E-11,,
,6.345005,-1.42E-11,,
,6.347005,-1.49E-11,,
,6.349005,-1.54E-11,,
,6.351005,-1.53E-11,,
,6.353005,-1.46E-11,,
,6.355005,-1.38E-11,,
,6.357005,-1.32E-11,,
,6.359005,-1.31E-11,,
,6.361005,-1.39E-11,,
,6.363005,-1.47E-11,,
,6.365005,-1.55E-11,,
,6.367005,-1.58E-11,,
,6.369005,-1.56E-11,,
,6.371005,-1.46E-11,,
,6.373005,-1.34E-11,,
,6.375005,-1.26E-11,,
,6.377005,-1.24E-11,,
,6.379005,-1.27E-11,,
,6.381005,-1.33E-11,,
,6.383005,-1.39E-11,,
,6.385005,-1.39E-11,,
,6.387005,-1.30E-11,,
,6.389005,-1.20E-11,,
,6.391005,-1.13E-11,,
,6.393005,-1.14E-11,,
,6.395005,-1.20E-11,,
,6.397005,-1.30E-11,,
,6.399005,-1.34E-11,,
,6.401005,-1.33E-11,,
,6.403005,-1.27E-11,,
,6.405005,-1.19E-11,,
,6.407005,-1.15E-11,,
,6.409005,-1.11E-11,,
,6.411005,-1.16E-11,,
,6.413005,-1.23E-11,,
,6.415005,-1.29E-11,,
,6.417005,-1.28E-11,,
,6.419005,-1.23E-11,,
,6.421005,-1.16E-11,,
,6.423005,-1.10E-11,,
,6.425005,-1.07E-11,,
,6.427005,-1.11E-11,,
,6.429005,-1.19E-11,,
,6.431005,-1.29E-11,,
,6.433005,-1.32E-11,,
,6.435005,-1.30E-11,,
,6.437005,-1.23E-11,,
,6.439005,-1.15E-11,,
,6.441005,-1.12E-11,,
,6.443005,-1.13E-11,,
,6.445005,-1.18E-11,,
,6.447005,-1.24E-11,,
,6.449005,-1.30E-11,,
,6.451005,-1.30E-11,,
,6.453005,-1.26E-11,,
,6.455005,-1.17E-11,,
,6.457005,-1.12E-11,,
,6.459005,-1.12E-11,,
,6.461005,-1.17E-11,,
,6.463005,-1.27E-11,,
,6.465005,-1.33E-11,,
,6.467005,-1.37E-11,,
,6.469005,-1.34E-11,,
,6.471005,-1.28E-11,,
,6.473005,-1.20E-11,,
,6.475005,-1.14E-11,,
,6.477005,-1.17E-11,,
,6.479005,-1.23E-11,,
,6.481005,-1.31E-11,,
,6.483005,-1.38E-11,,
,6.485005,-1.41E-11,,
,6.487005,-1.37E-11,,
,6.489005,-1.28E-11,,
,6.491005,-1.22E-11,,
,6.493005,-1.22E-11,,
,6.495005,-1.28E-11,,
,6.497005,-1.37E-11,,
,6.499005,-1.45E-11,,
,6.501005,-1.47E-11,,
,6.503005,-1.43E-11,,
,6.505005,-1.36E-11,,
,6.507005,-1.29E-11,,
,6.509005,-1.27E-11,,
,6.511005,-1.30E-11,,
,6.513005,-1.38E-11,,
,6.515005,-1.44E-11,,
,6.517005,-1.46E-11,,
,6.519005,-1.43E-11,,
,6.521005,-1.38E-11,,
,6.523005,-1.32E-11,,
,6.525005,-1.30E-11,,
,6.527005,-1.32E-11,,
,6.529005,-1.39E-11,,
,6.531005,-1.48E-11,,
,6.533005,-1.55E-11,,
,6.535005,-1.57E-11,,
,6.537005,-1.49E-11,,
,6.539005,-1.42E-11,,
,6.541005,-1.37E-11,,
,6.543005,-1.37E-11,,
,6.545005,-1.42E-11,,
,6.547005,-1.49E-11,,
,6.549005,-1.56E-11,,
,6.551005,-1.58E-11,,
,6.553005,-1.56E-11,,
,6.555005,-1.47E-11,,
,6.557005,-1.43E-11,,
,6.559005,-1.41E-11,,
,6.561005,-1.48E-11,,
,6.563005,-1.56E-11,,
,6.565005,-1.63E-11,,
,6.567005,-1.67E-11,,
,6.569005,-1.62E-11,,
,6.571005,-1.56E-11,,
,6.573005,-1.47E-11,,
,6.575005,-1.43E-11,,
,6.577005,-1.42E-11,,
,6.579005,-1.48E-11,,
,6.581005,-1.55E-11,,
,6.583005,-1.58E-11,,
,6.585005,-1.55E-11,,
,6.587005,-1.48E-11,,
,6.589005,-1.39E-11,,
,6.591005,-1.31E-11,,
,6.593005,-1.28E-11,,
,6.595005,-1.31E-11,,
,6.597005,-1.38E-11,,
,6.599005,-1.43E-11,,
,6.601005,-1.44E-11,,
,6.603005,-1.36E-11,,
,6.605005,-1.26E-11,,
,6.607005,-1.18E-11,,
,6.609005,-1.16E-11,,
,6.611005,-1.16E-11,,
,6.613005,-1.18E-11,,
,6.615005,-1.23E-11,,
,6.617005,-1.26E-11,,
,6.619005,-1.22E-11,,
,6.621005,-1.16E-11,,
,6.623005,-1.08E-11,,
,6.625005,-1.04E-11,,
,6.627005,-1.01E-11,,
,6.629005,-1.05E-11,,
,6.631005,-1.08E-11,,
,6.633005,-1.10E-11,,
,6.635005,-1.09E-11,,
,6.637005,-1.07E-11,,
,6.639005,-1.03E-11,,
,6.641005,-1.01E-11,,
,6.643005,-1.01E-11,,
,6.645005,-1.08E-11,,
,6.647005,-1.11E-11,,
,6.649005,-1.14E-11,,
,6.651005,-1.12E-11,,
,6.653005,-1.09E-11,,
,6.655005,-1.09E-11,,
,6.657005,-1.08E-11,,
,6.659005,-1.10E-11,,
,6.661005,-1.14E-11,,
,6.663005,-1.18E-11,,
,6.665005,-1.22E-11,,
,6.667005,-1.22E-11,,
,6.669005,-1.20E-11,,
,6.671005,-1.20E-11,,
,6.673005,-1.17E-11,,
,6.675005,-1.16E-11,,
,6.677005,-1.14E-11,,
,6.679005,-1.14E-11,,
,6.681005,-1.16E-11,,
,6.683005,-1.16E-11,,
,6.685005,-1.17E-11,,
,6.687005,-1.16E-11,,
,6.689005,-1.15E-11,,
,6.691005,-1.13E-11,,
,6.693005,-1.13E-11,,
,6.695005,-1.16E-11,,
,6.697005,-1.19E-11,,
,6.699005,-1.22E-11,,
,6.701005,-1.22E-11,,
,6.703005,-1.18E-11,,
,6.705005,-1.14E-11,,
,6.707005,-1.10E-11,,
,6.709005,-1.09E-11,,
,6.711005,-1.10E-11,,
,6.713005,-1.12E-11,,
,6.715005,-1.17E-11,,
,6.717005,-1.18E-11,,
,6.719005,-1.17E-11,,
,6.721005,-1.12E-11,,
,6.723005,-1.08E-11,,
,6.725005,-1.05E-11,,
,6.727005,-1.08E-11,,
,6.729005,-1.11E-11,,
,6.731005,-1.14E-11,,
,6.733005,-1.14E-11,,
,6.735005,-1.14E-11,,
,6.737005,-1.12E-11,,
,6.739005,-1.10E-11,,
,6.741005,-1.08E-11,,
,6.743005,-1.08E-11,,
,6.745005,-1.11E-11,,
,6.747005,-1.16E-11,,
,6.749005,-1.22E-11,,
,6.751005,-1.23E-11,,
,6.753005,-1.20E-11,,
,6.755005,-1.18E-11,,
,6.757005,-1.19E-11,,
,6.759005,-1.25E-11,,
,6.761005,-1.30E-11,,
,6.763005,-1.36E-11,,
,6.765005,-1.38E-11,,
,6.767005,-1.41E-11,,
,6.769005,-1.43E-11,,
,6.771005,-1.43E-11,,
,6.773005,-1.42E-11,,
,6.775005,-1.42E-11,,
,6.777005,-1.47E-11,,
,6.779005,-1.56E-11,,
,6.781005,-1.62E-11,,
,6.783005,-1.69E-11,,
,6.785005,-1.70E-11,,
,6.787005,-1.71E-11,,
,6.789005,-1.71E-11,,
,6.791005,-1.72E-11,,
,6.793005,-1.77E-11,,
,6.795005,-1.83E-11,,
,6.797005,-1.91E-11,,
,6.799005,-1.97E-11,,
,6.801005,-1.99E-11,,
,6.803005,-1.97E-11,,
,6.805005,-1.96E-11,,
,6.807005,-1.95E-11,,
,6.809005,-1.98E-11,,
,6.811005,-2.03E-11,,
,6.813005,-2.11E-11,,
,6.815005,-2.17E-11,,
,6.817005,-2.20E-11,,
,6.819005,-2.21E-11,,
,6.821005,-2.20E-11,,
,6.823005,-2.18E-11,,
,6.825005,-2.19E-11,,
,6.827005,-2.22E-11,,
,6.829005,-2.28E-11,,
,6.831005,-2.32E-11,,
,6.833005,-2.34E-11,,
,6.835005,-2.33E-11,,
,6.837005,-2.31E-11,,
,6.839005,-2.31E-11,,
,6.841005,-2.31E-11,,
,6.843005,-2.33E-11,,
,6.845005,-2.38E-11,,
,6.847005,-2.43E-11,,
,6.849005,-2.46E-11,,
,6.851005,-2.46E-11,,
,6.853005,-2.45E-11,,
,6.855005,-2.41E-11,,
,6.857005,-2.38E-11,,
,6.859005,-2.36E-11,,
,6.861005,-2.42E-11,,
,6.863005,-2.47E-11,,
,6.865005,-2.50E-11,,
,6.867005,-2.50E-11,,
,6.869005,-2.49E-11,,
,6.871005,-2.48E-11,,
,6.873005,-2.45E-11,,
,6.875005,-2.45E-11,,
,6.877005,-2.48E-11,,
,6.879005,-2.55E-11,,
,6.881005,-2.60E-11,,
,6.883005,-2.60E-11,,
,6.885005,-2.58E-11,,
,6.887005,-2.54E-11,,
,6.889005,-2.51E-11,,
,6.891005,-2.48E-11,,
,6.893005,-2.49E-11,,
,6.895005,-2.53E-11,,
,6.897005,-2.59E-11,,
,6.899005,-2.61E-11,,
,6.901005,-2.63E-11,,
,6.903005,-2.61E-11,,
,6.905005,-2.59E-11,,
,6.907005,-2.57E-11,,
,6.909005,-2.61E-11,,
,6.911005,-2.66E-11,,
,6.913005,-2.71E-11,,
,6.915005,-2.73E-11,,
,6.917005,-2.73E-11,,
,6.919005,-2.70E-11,,
,6.921005,-2.64E-11,,
,6.923005,-2.58E-11,,
,6.925005,-2.55E-11,,
,6.927005,-2.54E-11,,
,6.929005,-2.57E-11,,
,6.931005,-2.63E-11,,
,6.933005,-2.69E-11,,
,6.935005,-2.68E-11,,
,6.937005,-2.63E-11,,
,6.939005,-2.56E-11,,
,6.941005,-2.56E-11,,
,6.943005,-2.54E-11,,
,6.945005,-2.57E-11,,
,6.947005,-2.57E-11,,
,6.949005,-2.58E-11,,
,6.951005,-2.55E-11,,
,6.953005,-2.51E-11,,
,6.955005,-2.46E-11,,
,6.957005,-2.42E-11,,
,6.959005,-2.39E-11,,
,6.961005,-2.41E-11,,
,6.963005,-2.45E-11,,
,6.965005,-2.47E-11,,
,6.967005,-2.48E-11,,
,6.969005,-2.49E-11,,
,6.971005,-2.45E-11,,
,6.973005,-2.38E-11,,
,6.975005,-2.31E-11,,
,6.977005,-2.32E-11,,
,6.979005,-2.36E-11,,
,6.981005,-2.39E-11,,
,6.983005,-2.40E-11,,
,6.985005,-2.38E-11,,
,6.987005,-2.32E-11,,
,6.989005,-2.27E-11,,
,6.991005,-2.22E-11,,
,6.993005,-2.24E-11,,
,6.995005,-2.27E-11,,
,6.997005,-2.33E-11,,
,6.999005,-2.36E-11,,
,7.001005,-2.35E-11,,
,7.003005,-2.30E-11,,
,7.005005,-2.24E-11,,
,7.007005,-2.19E-11,,
,7.009005,-2.19E-11,,
,7.011005,-2.21E-11,,
,7.013005,-2.27E-11,,
,7.015005,-2.30E-11,,
,7.017005,-2.32E-11,,
,7.019005,-2.29E-11,,
,7.021005,-2.21E-11,,
,7.023005,-2.15E-11,,
,7.025005,-2.13E-11,,
,7.027005,-2.16E-11,,
,7.029005,-2.21E-11,,
,7.031005,-2.26E-11,,
,7.033005,-2.29E-11,,
,7.035005,-2.28E-11,,
,7.037005,-2.25E-11,,
,7.039005,-2.19E-11,,
,7.041005,-2.16E-11,,
,7.043005,-2.16E-11,,
,7.045005,-2.19E-11,,
,7.047005,-2.24E-11,,
,7.049005,-2.28E-11,,
,7.051005,-2.28E-11,,
,7.053005,-2.25E-11,,
,7.055005,-2.18E-11,,
,7.057005,-2.13E-11,,
,7.059005,-2.12E-11,,
,7.061005,-2.13E-11,,
,7.063005,-2.19E-11,,
,7.065005,-2.24E-11,,
,7.067005,-2.27E-11,,
,7.069005,-2.25E-11,,
,7.071005,-2.20E-11,,
,7.073005,-2.15E-11,,
,7.075005,-2.11E-11,,
,7.077005,-2.11E-11,,
,7.079005,-2.15E-11,,
,7.081005,-2.21E-11,,
,7.083005,-2.24E-11,,
,7.085005,-2.21E-11,,
,7.087005,-2.16E-11,,
,7.089005,-2.11E-11,,
,7.091005,-2.06E-11,,
,7.093005,-2.05E-11,,
,7.095005,-2.10E-11,,
,7.097005,-2.14E-11,,
,7.099005,-2.17E-11,,
,7.101005,-2.19E-11,,
,7.103005,-2.20E-11,,
,7.105005,-2.18E-11,,
,7.107005,-2.12E-11,,
,7.109005,-2.09E-11,,
,7.111005,-2.12E-11,,
,7.113005,-2.19E-11,,
,7.115005,-2.22E-11,,
,7.117005,-2.21E-11,,
,7.119005,-2.17E-11,,
,7.121005,-2.13E-11,,
,7.123005,-2.07E-11,,
,7.125005,-2.04E-11,,
,7.127005,-2.05E-11,,
,7.129005,-2.11E-11,,
,7.131005,-2.15E-11,,
,7.133005,-2.18E-11,,
,7.135005,-2.18E-11,,
,7.137005,-2.16E-11,,
,7.139005,-2.09E-11,,
,7.141005,-2.04E-11,,
,7.143005,-2.02E-11,,
,7.145005,-2.09E-11,,
,7.147005,-2.12E-11,,
,7.149005,-2.15E-11,,
,7.151005,-2.12E-11,,
,7.153005,-2.07E-11,,
,7.155005,-2.00E-11,,
,7.157005,-1.95E-11,,
,7.159005,-1.93E-11,,
,7.161005,-1.99E-11,,
,7.163005,-2.03E-11,,
,7.165005,-2.09E-11,,
,7.167005,-2.07E-11,,
,7.169005,-2.07E-11,,
,7.171005,-2.01E-11,,
,7.173005,-1.97E-11,,
,7.175005,-1.91E-11,,
,7.177005,-1.92E-11,,
,7.179005,-1.98E-11,,
,7.181005,-2.03E-11,,
,7.183005,-2.05E-11,,
,7.185005,-2.02E-11,,
,7.187005,-1.97E-11,,
,7.189005,-1.90E-11,,
,7.191005,-1.86E-11,,
,7.193005,-1.88E-11,,
,7.195005,-1.92E-11,,
,7.197005,-1.99E-11,,
,7.199005,-2.01E-11,,
,7.201005,-2.02E-11,,
,7.203005,-2.00E-11,,
,7.205005,-1.95E-11,,
,7.207005,-1.90E-11,,
,7.209005,-1.90E-11,,
,7.211005,-1.95E-11,,
,7.213005,-1.99E-11,,
,7.215005,-1.99E-11,,
,7.217005,-1.97E-11,,
,7.219005,-1.92E-11,,
,7.221005,-1.87E-11,,
,7.223005,-1.83E-11,,
,7.225005,-1.81E-11,,
,7.227005,-1.82E-11,,
,7.229005,-1.86E-11,,
,7.231005,-1.91E-11,,
,7.233005,-1.96E-11,,
,7.235005,-1.97E-11,,
,7.237005,-1.92E-11,,
,7.239005,-1.86E-11,,
,7.241005,-1.82E-11,,
,7.243005,-1.83E-11,,
,7.245005,-1.87E-11,,
,7.247005,-1.89E-11,,
,7.249005,-1.89E-11,,
,7.251005,-1.86E-11,,
,7.253005,-1.81E-11,,
,7.255005,-1.76E-11,,
,7.257005,-1.69E-11,,
,7.259005,-1.70E-11,,
,7.261005,-1.73E-11,,
,7.263005,-1.85E-11,,
,7.265005,-1.90E-11,,
,7.267005,-1.90E-11,,
,7.269005,-1.85E-11,,
,7.271005,-1.78E-11,,
,7.273005,-1.75E-11,,
,7.275005,-1.72E-11,,
,7.277005,-1.71E-11,,
,7.279005,-1.72E-11,,
,7.281005,-1.72E-11,,
,7.283005,-1.73E-11,,
,7.285005,-1.72E-11,,
,7.287005,-1.70E-11,,
,7.289005,-1.63E-11,,
,7.291005,-1.56E-11,,
,7.293005,-1.56E-11,,
,7.295005,-1.62E-11,,
,7.297005,-1.71E-11,,
,7.299005,-1.75E-11,,
,7.301005,-1.77E-11,,
,7.303005,-1.75E-11,,
,7.305005,-1.70E-11,,
,7.307005,-1.61E-11,,
,7.309005,-1.58E-11,,
,7.311005,-1.59E-11,,
,7.313005,-1.65E-11,,
,7.315005,-1.69E-11,,
,7.317005,-1.69E-11,,
,7.319005,-1.67E-11,,
,7.321005,-1.59E-11,,
,7.323005,-1.55E-11,,
,7.325005,-1.53E-11,,
,7.327005,-1.56E-11,,
,7.329005,-1.63E-11,,
,7.331005,-1.68E-11,,
,7.333005,-1.70E-11,,
,7.335005,-1.68E-11,,
,7.337005,-1.63E-11,,
,7.339005,-1.57E-11,,
,7.341005,-1.52E-11,,
,7.343005,-1.52E-11,,
,7.345005,-1.56E-11,,
,7.347005,-1.59E-11,,
,7.349005,-1.59E-11,,
,7.351005,-1.55E-11,,
,7.353005,-1.49E-11,,
,7.355005,-1.43E-11,,
,7.357005,-1.39E-11,,
,7.359005,-1.40E-11,,
,7.361005,-1.44E-11,,
,7.363005,-1.52E-11,,
,7.365005,-1.57E-11,,
,7.367005,-1.61E-11,,
,7.369005,-1.61E-11,,
,7.371005,-1.58E-11,,
,7.373005,-1.53E-11,,
,7.375005,-1.51E-11,,
,7.377005,-1.51E-11,,
,7.379005,-1.55E-11,,
,7.381005,-1.57E-11,,
,7.383005,-1.59E-11,,
,7.385005,-1.59E-11,,
,7.387005,-1.55E-11,,
,7.389005,-1.49E-11,,
,7.391005,-1.44E-11,,
,7.393005,-1.44E-11,,
,7.395005,-1.47E-11,,
,7.397005,-1.54E-11,,
,7.399005,-1.60E-11,,
,7.401005,-1.63E-11,,
,7.403005,-1.59E-11,,
,7.405005,-1.54E-11,,
,7.407005,-1.47E-11,,
,7.409005,-1.46E-11,,
,7.411005,-1.46E-11,,
,7.413005,-1.51E-11,,
,7.415005,-1.53E-11,,
,7.417005,-1.53E-11,,
,7.419005,-1.47E-11,,
,7.421005,-1.42E-11,,
,7.423005,-1.37E-11,,
,7.425005,-1.33E-11,,
,7.427005,-1.34E-11,,
,7.429005,-1.38E-11,,
,7.431005,-1.42E-11,,
,7.433005,-1.43E-11,,
,7.435005,-1.40E-11,,
,7.437005,-1.36E-11,,
,7.439005,-1.29E-11,,
,7.441005,-1.25E-11,,
,7.443005,-1.23E-11,,
,7.445005,-1.24E-11,,
,7.447005,-1.28E-11,,
,7.449005,-1.31E-11,,
,7.451005,-1.30E-11,,
,7.453005,-1.25E-11,,
,7.455005,-1.17E-11,,
,7.457005,-1.13E-11,,
,7.459005,-1.13E-11,,
,7.461005,-1.16E-11,,
,7.463005,-1.19E-11,,
,7.465005,-1.22E-11,,
,7.467005,-1.24E-11,,
,7.469005,-1.22E-11,,
,7.471005,-1.14E-11,,
,7.473005,-1.04E-11,,
,7.475005,-1.01E-11,,
,7.477005,-1.04E-11,,
,7.479005,-1.11E-11,,
,7.481005,-1.16E-11,,
,7.483005,-1.17E-11,,
,7.485005,-1.14E-11,,
,7.487005,-1.07E-11,,
,7.489005,-9.90E-12,,
,7.491005,-9.58E-12,,
,7.493005,-9.58E-12,,
,7.495005,-9.90E-12,,
,7.497005,-1.02E-11,,
,7.499005,-1.05E-11,,
,7.501005,-1.07E-11,,
,7.503005,-1.01E-11,,
,7.505005,-9.37E-12,,
,7.507005,-8.83E-12,,
,7.509005,-8.83E-12,,
,7.511005,-9.04E-12,,
,7.513005,-9.37E-12,,
,7.515005,-9.26E-12,,
,7.517005,-9.26E-12,,
,7.519005,-8.83E-12,,
,7.521005,-8.61E-12,,
,7.523005,-7.97E-12,,
,7.525005,-7.54E-12,,
,7.527005,-7.65E-12,,
,7.529005,-8.08E-12,,
,7.531005,-8.72E-12,,
,7.533005,-8.83E-12,,
,7.535005,-8.94E-12,,
,7.537005,-8.72E-12,,
,7.539005,-8.08E-12,,
,7.541005,-7.65E-12,,
,7.543005,-7.43E-12,,
,7.545005,-7.97E-12,,
,7.547005,-8.40E-12,,
,7.549005,-8.61E-12,,
,7.551005,-8.51E-12,,
,7.553005,-8.08E-12,,
,7.555005,-7.43E-12,,
,7.557005,-6.90E-12,,
,7.559005,-6.57E-12,,
,7.561005,-6.79E-12,,
,7.563005,-7.33E-12,,
,7.565005,-7.75E-12,,
,7.567005,-7.75E-12,,
,7.569005,-7.33E-12,,
,7.571005,-6.79E-12,,
,7.573005,-6.36E-12,,
,7.575005,-6.14E-12,,
,7.577005,-6.14E-12,,
,7.579005,-6.68E-12,,
,7.581005,-6.90E-12,,
,7.583005,-6.90E-12,,
,7.585005,-6.36E-12,,
,7.587005,-5.72E-12,,
,7.589005,-5.07E-12,,
,7.591005,-4.43E-12,,
,7.593005,-4.21E-12,,
,7.595005,-4.43E-12,,
,7.597005,-4.86E-12,,
,7.599005,-5.18E-12,,
,7.601005,-5.07E-12,,
,7.603005,-4.64E-12,,
,7.605005,-4.21E-12,,
,7.607005,-3.57E-12,,
,7.609005,-3.35E-12,,
,7.611005,-3.25E-12,,
,7.613005,-3.68E-12,,
,7.615005,-3.68E-12,,
,7.617005,-3.25E-12,,
,7.619005,-2.49E-12,,
,7.621005,-1.64E-12,,
,7.623005,-9.92E-13,,
,7.625005,-4.55E-13,,
,7.627005,-8.84E-13,,
,7.629005,-1.64E-12,,
,7.631005,-2.49E-12,,
,7.633005,-2.71E-12,,
,7.635005,-2.39E-12,,
,7.637005,-1.74E-12,,
,7.639005,-8.84E-13,,
,7.641005,-3.47E-13,,
,7.643005,-2.40E-13,,
,7.645005,-4.55E-13,,
,7.647005,-8.84E-13,,
,7.649005,-1.31E-12,,
,7.651005,-1.31E-12,,
,7.653005,-8.84E-13,,
,7.655005,-2.40E-13,,
,7.657005,1.89E-13,,
,7.659005,2.97E-13,,
,7.661005,-2.53E-14,,
,7.663005,-5.62E-13,,
,7.665005,-1.21E-12,,
,7.667005,-1.42E-12,,
,7.669005,-1.42E-12,,
,7.671005,-8.84E-13,,
,7.673005,-3.47E-13,,
,7.675005,1.89E-13,,
,7.677005,1.89E-13,,
,7.679005,-1.33E-13,,
,7.681005,-5.62E-13,,
,7.683005,-8.84E-13,,
,7.685005,-5.62E-13,,
,7.687005,-2.53E-14,,
,7.689005,7.26E-13,,
,7.691005,1.16E-12,,
,7.693005,1.16E-12,,
,7.695005,5.11E-13,,
,7.697005,-3.47E-13,,
,7.699005,-7.77E-13,,
,7.701005,-5.62E-13,,
,7.703005,-2.40E-13,,
,7.705005,1.89E-13,,
,7.707005,5.11E-13,,
,7.709005,8.34E-13,,
,7.711005,7.26E-13,,
,7.713005,2.97E-13,,
,7.715005,-2.53E-14,,
,7.717005,8.20E-14,,
,7.719005,5.11E-13,,
,7.721005,1.26E-12,,
,7.723005,1.69E-12,,
,7.725005,2.12E-12,,
,7.727005,1.80E-12,,
,7.729005,1.05E-12,,
,7.731005,4.04E-13,,
,7.733005,-2.53E-14,,
,7.735005,1.89E-13,,
,7.737005,7.26E-13,,
,7.739005,1.26E-12,,
,7.741005,1.69E-12,,
,7.743005,1.48E-12,,
,7.745005,1.16E-12,,
,7.747005,7.26E-13,,
,7.749005,6.19E-13,,
,7.751005,9.41E-13,,
,7.753005,1.37E-12,,
,7.755005,2.01E-12,,
,7.757005,2.34E-12,,
,7.759005,2.34E-12,,
,7.761005,1.59E-12,,
,7.763005,8.34E-13,,
,7.765005,5.11E-13,,
,7.767005,4.04E-13,,
,7.769005,6.19E-13,,
,7.771005,1.05E-12,,
,7.773005,1.80E-12,,
,7.775005,2.12E-12,,
,7.777005,2.01E-12,,
,7.779005,1.59E-12,,
,7.781005,1.26E-12,,
,7.783005,9.41E-13,,
,7.785005,1.05E-12,,
,7.787005,1.59E-12,,
,7.789005,2.01E-12,,
,7.791005,2.34E-12,,
,7.793005,2.23E-12,,
,7.795005,1.69E-12,,
,7.797005,8.34E-13,,
,7.799005,8.20E-14,,
,7.801005,-1.33E-13,,
,7.803005,8.20E-14,,
,7.805005,5.11E-13,,
,7.807005,9.41E-13,,
,7.809005,1.05E-12,,
,7.811005,7.26E-13,,
,7.813005,1.89E-13,,
,7.815005,-2.40E-13,,
,7.817005,-3.47E-13,,
,7.819005,-2.40E-13,,
,7.821005,4.04E-13,,
,7.823005,8.34E-13,,
,7.825005,9.41E-13,,
,7.827005,4.04E-13,,
,7.829005,-1.33E-13,,
,7.831005,-5.62E-13,,
,7.833005,-8.84E-13,,
,7.835005,-8.84E-13,,
,7.837005,-5.62E-13,,
,7.839005,-3.47E-13,,
,7.841005,-3.47E-13,,
,7.843005,-4.55E-13,,
,7.845005,-6.69E-13,,
,7.847005,-9.92E-13,,
,7.849005,-1.31E-12,,
,7.851005,-1.31E-12,,
,7.853005,-1.10E-12,,
,7.855005,-6.69E-13,,
,7.857005,-2.40E-13,,
,7.859005,-2.40E-13,,
,7.861005,-7.77E-13,,
,7.863005,-1.64E-12,,
,7.865005,-2.17E-12,,
,7.867005,-2.49E-12,,
,7.869005,-2.28E-12,,
,7.871005,-1.74E-12,,
,7.873005,-1.10E-12,,
,7.875005,-9.92E-13,,
,7.877005,-1.53E-12,,
,7.879005,-2.07E-12,,
,7.881005,-2.49E-12,,
,7.883005,-2.60E-12,,
,7.885005,-2.39E-12,,
,7.887005,-2.17E-12,,
,7.889005,-1.31E-12,,
,7.891005,-9.92E-13,,
,7.893005,-6.69E-13,,
,7.895005,-1.31E-12,,
,7.897005,-1.74E-12,,
,7.899005,-2.17E-12,,
,7.901005,-2.28E-12,,
,7.903005,-2.17E-12,,
,7.905005,-1.85E-12,,
,7.907005,-1.53E-12,,
,7.909005,-1.42E-12,,
,7.911005,-1.74E-12,,
,7.913005,-2.39E-12,,
,7.915005,-2.71E-12,,
,7.917005,-2.71E-12,,
,7.919005,-2.17E-12,,
,7.921005,-1.85E-12,,
,7.923005,-1.21E-12,,
,7.925005,-7.77E-13,,
,7.927005,-5.62E-13,,
,7.929005,-1.10E-12,,
,7.931005,-1.74E-12,,
,7.933005,-2.17E-12,,
,7.935005,-2.07E-12,,
,7.937005,-1.74E-12,,
,7.939005,-1.42E-12,,
,7.941005,-1.21E-12,,
,7.943005,-1.10E-12,,
,7.945005,-1.31E-12,,
,7.947005,-1.53E-12,,
,7.949005,-1.74E-12,,
,7.951005,-1.64E-12,,
,7.953005,-1.10E-12,,
,7.955005,-1.33E-13,,
,7.957005,8.34E-13,,
,7.959005,1.05E-12,,
,7.961005,7.26E-13,,
,7.963005,-2.53E-14,,
,7.965005,-3.47E-13,,
,7.967005,-7.77E-13,,
,7.969005,-5.62E-13,,
,7.971005,-1.33E-13,,
,7.973005,5.11E-13,,
,7.975005,9.41E-13,,
,7.977005,9.41E-13,,
,7.979005,6.19E-13,,
,7.981005,2.97E-13,,
,7.983005,1.89E-13,,
,7.985005,5.11E-13,,
,7.987005,1.05E-12,,
,7.989005,1.69E-12,,
,7.991005,2.34E-12,,
,7.993005,2.44E-12,,
,7.995005,2.23E-12,,
,7.997005,1.69E-12,,
,7.999005,1.16E-12,,
,8.001005,9.41E-13,,
,8.003005,9.41E-13,,
,8.005005,1.80E-12,,
,8.007005,2.44E-12,,
,8.009005,2.98E-12,,
,8.011005,2.77E-12,,
,8.013005,2.34E-12,,
,8.015005,2.23E-12,,
,8.017005,2.44E-12,,
,8.019005,2.87E-12,,
,8.021005,3.52E-12,,
,8.023005,3.95E-12,,
,8.025005,4.48E-12,,
,8.027005,4.16E-12,,
,8.029005,3.62E-12,,
,8.031005,2.98E-12,,
,8.033005,2.77E-12,,
,8.035005,2.98E-12,,
,8.037005,3.20E-12,,
,8.039005,3.52E-12,,
,8.041005,3.95E-12,,
,8.043005,4.16E-12,,
,8.045005,3.95E-12,,
,8.047005,3.30E-12,,
,8.049005,2.98E-12,,
,8.051005,3.09E-12,,
,8.053005,3.73E-12,,
,8.055005,4.59E-12,,
,8.057005,5.13E-12,,
,8.059005,5.24E-12,,
,8.061005,4.70E-12,,
,8.063005,4.05E-12,,
,8.065005,3.20E-12,,
,8.067005,2.77E-12,,
,8.069005,2.77E-12,,
,8.071005,3.20E-12,,
,8.073005,3.73E-12,,
,8.075005,3.95E-12,,
,8.077005,3.95E-12,,
,8.079005,3.52E-12,,
,8.081005,3.20E-12,,
,8.083005,2.87E-12,,
,8.085005,3.09E-12,,
,8.087005,3.62E-12,,
,8.089005,4.38E-12,,
,8.091005,5.02E-12,,
,8.093005,5.13E-12,,
,8.095005,4.70E-12,,
,8.097005,3.95E-12,,
,8.099005,3.41E-12,,
,8.101005,3.20E-12,,
,8.103005,3.30E-12,,
,8.105005,3.84E-12,,
,8.107005,4.05E-12,,
,8.109005,3.95E-12,,
,8.111005,3.41E-12,,
,8.113005,2.98E-12,,
,8.115005,2.87E-12,,
,8.117005,3.09E-12,,
,8.119005,3.73E-12,,
,8.121005,4.59E-12,,
,8.123005,5.13E-12,,
,8.125005,5.34E-12,,
,8.127005,5.02E-12,,
,8.129005,4.48E-12,,
,8.131005,3.95E-12,,
,8.133005,3.41E-12,,
,8.135005,3.41E-12,,
,8.137005,3.62E-12,,
,8.139005,4.05E-12,,
,8.141005,4.27E-12,,
,8.143005,4.27E-12,,
,8.145005,4.05E-12,,
,8.147005,3.84E-12,,
,8.149005,3.84E-12,,
,8.151005,3.95E-12,,
,8.153005,4.48E-12,,
,8.155005,5.02E-12,,
,8.157005,5.66E-12,,
,8.159005,5.56E-12,,
,8.161005,5.13E-12,,
,8.163005,4.38E-12,,
,8.165005,3.84E-12,,
,8.167005,3.41E-12,,
,8.169005,3.52E-12,,
,8.171005,3.95E-12,,
,8.173005,4.48E-12,,
,8.175005,4.81E-12,,
,8.177005,4.59E-12,,
,8.179005,4.16E-12,,
,8.181005,3.73E-12,,
,8.183005,3.73E-12,,
,8.185005,4.27E-12,,
,8.187005,4.81E-12,,
,8.189005,5.45E-12,,
,8.191005,5.77E-12,,
,8.193005,5.66E-12,,
,8.195005,5.13E-12,,
,8.197005,4.59E-12,,
,8.199005,4.05E-12,,
,8.201005,3.84E-12,,
,8.203005,3.73E-12,,
,8.205005,4.16E-12,,
,8.207005,4.81E-12,,
,8.209005,5.34E-12,,
,8.211005,5.24E-12,,
,8.213005,4.91E-12,,
,8.215005,4.70E-12,,
,8.217005,4.91E-12,,
,8.219005,5.34E-12,,
,8.221005,5.77E-12,,
,8.223005,6.31E-12,,
,8.225005,6.52E-12,,
,8.227005,6.31E-12,,
,8.229005,5.66E-12,,
,8.231005,4.81E-12,,
,8.233005,4.27E-12,,
,8.235005,4.05E-12,,
,8.237005,4.48E-12,,
,8.239005,5.13E-12,,
,8.241005,5.66E-12,,
,8.243005,5.77E-12,,
,8.245005,5.34E-12,,
,8.247005,4.81E-12,,
,8.249005,4.27E-12,,
,8.251005,4.48E-12,,
,8.253005,5.02E-12,,
,8.255005,5.88E-12,,
,8.257005,5.99E-12,,
,8.259005,6.09E-12,,
,8.261005,5.66E-12,,
,8.263005,5.24E-12,,
,8.265005,4.59E-12,,
,8.267005,4.27E-12,,
,8.269005,4.38E-12,,
,8.271005,4.59E-12,,
,8.273005,5.02E-12,,
,8.275005,5.34E-12,,
,8.277005,5.24E-12,,
,8.279005,4.59E-12,,
,8.281005,4.16E-12,,
,8.283005,4.05E-12,,
,8.285005,4.27E-12,,
,8.287005,4.59E-12,,
,8.289005,4.91E-12,,
,8.291005,5.45E-12,,
,8.293005,5.13E-12,,
,8.295005,4.70E-12,,
,8.297005,3.95E-12,,
,8.299005,3.30E-12,,
,8.301005,3.20E-12,,
,8.303005,3.09E-12,,
,8.305005,3.30E-12,,
,8.307005,3.41E-12,,
,8.309005,3.20E-12,,
,8.311005,2.87E-12,,
,8.313005,2.12E-12,,
,8.315005,1.80E-12,,
,8.317005,1.59E-12,,
,8.319005,1.48E-12,,
,8.321005,1.69E-12,,
,8.323005,2.12E-12,,
,8.325005,2.23E-12,,
,8.327005,1.80E-12,,
,8.329005,9.41E-13,,
,8.331005,4.04E-13,,
,8.333005,-2.40E-13,,
,8.335005,-4.55E-13,,
,8.337005,-4.55E-13,,
,8.339005,-1.33E-13,,
,8.341005,-2.53E-14,,
,8.343005,-3.47E-13,,
,8.345005,-9.92E-13,,
,8.347005,-1.53E-12,,
,8.349005,-1.96E-12,,
,8.351005,-2.07E-12,,
,8.353005,-1.96E-12,,
,8.355005,-1.53E-12,,
,8.357005,-1.21E-12,,
,8.359005,-1.31E-12,,
,8.361005,-1.53E-12,,
,8.363005,-2.17E-12,,
,8.365005,-2.71E-12,,
,8.367005,-3.35E-12,,
,8.369005,-3.25E-12,,
,8.371005,-3.03E-12,,
,8.373005,-2.82E-12,,
,8.375005,-2.82E-12,,
,8.377005,-3.25E-12,,
,8.379005,-3.78E-12,,
,8.381005,-4.32E-12,,
,8.383005,-4.53E-12,,
,8.385005,-4.53E-12,,
,8.387005,-4.21E-12,,
,8.389005,-3.68E-12,,
,8.391005,-3.25E-12,,
,8.393005,-3.35E-12,,
,8.395005,-3.68E-12,,
,8.397005,-4.00E-12,,
,8.399005,-4.43E-12,,
,8.401005,-4.43E-12,,
,8.403005,-4.21E-12,,
,8.405005,-3.57E-12,,
,8.407005,-3.14E-12,,
,8.409005,-2.82E-12,,
,8.411005,-2.92E-12,,
,8.413005,-3.25E-12,,
,8.415005,-3.35E-12,,
,8.417005,-3.25E-12,,
,8.419005,-2.71E-12,,
,8.421005,-1.96E-12,,
,8.423005,-9.92E-13,,
,8.425005,-3.47E-13,,
,8.427005,-1.33E-13,,
,8.429005,-3.47E-13,,
,8.431005,-3.47E-13,,
,8.433005,-3.47E-13,,
,8.435005,8.20E-14,,
,8.437005,6.19E-13,,
,8.439005,1.48E-12,,
,8.441005,2.01E-12,,
,8.443005,2.44E-12,,
,8.445005,2.34E-12,,
,8.447005,2.55E-12,,
,8.449005,2.77E-12,,
,8.451005,3.30E-12,,
,8.453005,4.27E-12,,
,8.455005,5.24E-12,,
,8.457005,6.31E-12,,
,8.459005,6.85E-12,,
,8.461005,7.17E-12,,
,8.463005,7.17E-12,,
,8.465005,6.95E-12,,
,8.467005,7.17E-12,,
,8.469005,7.70E-12,,
,8.471005,8.46E-12,,
,8.473005,9.21E-12,,
,8.475005,9.85E-12,,
,8.477005,1.03E-11,,
,8.479005,1.02E-11,,
,8.481005,1.04E-11,,
,8.483005,1.08E-11,,
,8.485005,1.18E-11,,
,8.487005,1.23E-11,,
,8.489005,1.33E-11,,
,8.491005,1.40E-11,,
,8.493005,1.45E-11,,
,8.495005,1.45E-11,,
,8.497005,1.39E-11,,
,8.499005,1.38E-11,,
,8.501005,1.38E-11,,
,8.503005,1.44E-11,,
,8.505005,1.49E-11,,
,8.507005,1.56E-11,,
,8.509005,1.62E-11,,
,8.511005,1.67E-11,,
,8.513005,1.64E-11,,
,8.515005,1.63E-11,,
,8.517005,1.62E-11,,
,8.519005,1.67E-11,,
,8.521005,1.73E-11,,
,8.523005,1.80E-11,,
,8.525005,1.87E-11,,
,8.527005,1.87E-11,,
,8.529005,1.82E-11,,
,8.531005,1.74E-11,,
,8.533005,1.72E-11,,
,8.535005,1.69E-11,,
,8.537005,1.74E-11,,
,8.539005,1.77E-11,,
,8.541005,1.82E-11,,
,8.543005,1.81E-11,,
,8.545005,1.77E-11,,
,8.547005,1.73E-11,,
,8.549005,1.69E-11,,
,8.551005,1.69E-11,,
,8.553005,1.70E-11,,
,8.555005,1.78E-11,,
,8.557005,1.84E-11,,
,8.559005,1.84E-11,,
,8.561005,1.76E-11,,
,8.563005,1.66E-11,,
,8.565005,1.60E-11,,
,8.567005,1.56E-11,,
,8.569005,1.55E-11,,
,8.571005,1.56E-11,,
,8.573005,1.59E-11,,
,8.575005,1.55E-11,,
,8.577005,1.51E-11,,
,8.579005,1.44E-11,,
,8.581005,1.39E-11,,
,8.583005,1.34E-11,,
,8.585005,1.33E-11,,
,8.587005,1.34E-11,,
,8.589005,1.40E-11,,
,8.591005,1.44E-11,,
,8.593005,1.44E-11,,
,8.595005,1.34E-11,,
,8.597005,1.24E-11,,
,8.599005,1.15E-11,,
,8.601005,1.11E-11,,
,8.603005,1.11E-11,,
,8.605005,1.16E-11,,
,8.607005,1.16E-11,,
,8.609005,1.12E-11,,
,8.611005,1.06E-11,,
,8.613005,9.96E-12,,
,8.615005,9.64E-12,,
,8.617005,9.42E-12,,
,8.619005,9.74E-12,,
,8.621005,1.02E-11,,
,8.623005,1.07E-11,,
,8.625005,1.10E-11,,
,8.627005,1.07E-11,,
,8.629005,9.96E-12,,
,8.631005,9.10E-12,,
,8.633005,8.67E-12,,
,8.635005,8.56E-12,,
,8.637005,8.67E-12,,
,8.639005,8.99E-12,,
,8.641005,9.21E-12,,
,8.643005,9.31E-12,,
,8.645005,8.67E-12,,
,8.647005,8.35E-12,,
,8.649005,7.81E-12,,
,8.651005,7.81E-12,,
,8.653005,7.92E-12,,
,8.655005,8.35E-12,,
,8.657005,8.56E-12,,
,8.659005,7.92E-12,,
,8.661005,6.95E-12,,
,8.663005,5.88E-12,,
,8.665005,5.13E-12,,
,8.667005,4.48E-12,,
,8.669005,4.16E-12,,
,8.671005,3.95E-12,,
,8.673005,3.73E-12,,
,8.675005,3.52E-12,,
,8.677005,3.09E-12,,
,8.679005,2.44E-12,,
,8.681005,1.37E-12,,
,8.683005,5.11E-13,,
,8.685005,2.97E-13,,
,8.687005,4.04E-13,,
,8.689005,6.19E-13,,
,8.691005,5.11E-13,,
,8.693005,1.89E-13,,
,8.695005,-6.69E-13,,
,8.697005,-1.64E-12,,
,8.699005,-2.28E-12,,
,8.701005,-2.60E-12,,
,8.703005,-2.82E-12,,
,8.705005,-2.92E-12,,
,8.707005,-2.92E-12,,
,8.709005,-3.25E-12,,
,8.711005,-4.00E-12,,
,8.713005,-4.75E-12,,
,8.715005,-5.50E-12,,
,8.717005,-5.61E-12,,
,8.719005,-5.50E-12,,
,8.721005,-4.96E-12,,
,8.723005,-4.64E-12,,
,8.725005,-4.64E-12,,
,8.727005,-4.96E-12,,
,8.729005,-5.93E-12,,
,8.731005,-6.68E-12,,
,8.733005,-7.33E-12,,
,8.735005,-7.43E-12,,
,8.737005,-7.54E-12,,
,8.739005,-7.54E-12,,
,8.741005,-7.75E-12,,
,8.743005,-7.97E-12,,
,8.745005,-8.40E-12,,
,8.747005,-8.83E-12,,
,8.749005,-9.26E-12,,
,8.751005,-9.47E-12,,
,8.753005,-9.26E-12,,
,8.755005,-8.72E-12,,
,8.757005,-8.29E-12,,
,8.759005,-8.18E-12,,
,8.761005,-8.72E-12,,
,8.763005,-9.47E-12,,
,8.765005,-1.03E-11,,
,8.767005,-1.10E-11,,
,8.769005,-1.10E-11,,
,8.771005,-1.08E-11,,
,8.773005,-1.02E-11,,
,8.775005,-1.02E-11,,
,8.777005,-1.04E-11,,
,8.779005,-1.11E-11,,
,8.781005,-1.17E-11,,
,8.783005,-1.22E-11,,
,8.785005,-1.23E-11,,
,8.787005,-1.20E-11,,
,8.789005,-1.15E-11,,
,8.791005,-1.12E-11,,
,8.793005,-1.13E-11,,
,8.795005,-1.19E-11,,
,8.797005,-1.27E-11,,
,8.799005,-1.31E-11,,
,8.801005,-1.32E-11,,
,8.803005,-1.29E-11,,
,8.805005,-1.24E-11,,
,8.807005,-1.20E-11,,
,8.809005,-1.20E-11,,
,8.811005,-1.26E-11,,
,8.813005,-1.30E-11,,
,8.815005,-1.33E-11,,
,8.817005,-1.32E-11,,
,8.819005,-1.30E-11,,
,8.821005,-1.25E-11,,
,8.823005,-1.19E-11,,
,8.825005,-1.16E-11,,
,8.827005,-1.17E-11,,
,8.829005,-1.23E-11,,
,8.831005,-1.28E-11,,
,8.833005,-1.32E-11,,
,8.835005,-1.34E-11,,
,8.837005,-1.33E-11,,
,8.839005,-1.31E-11,,
,8.841005,-1.29E-11,,
,8.843005,-1.30E-11,,
,8.845005,-1.37E-11,,
,8.847005,-1.42E-11,,
,8.849005,-1.46E-11,,
,8.851005,-1.45E-11,,
,8.853005,-1.43E-11,,
,8.855005,-1.39E-11,,
,8.857005,-1.38E-11,,
,8.859005,-1.37E-11,,
,8.861005,-1.41E-11,,
,8.863005,-1.46E-11,,
,8.865005,-1.54E-11,,
,8.867005,-1.57E-11,,
,8.869005,-1.56E-11,,
,8.871005,-1.56E-11,,
,8.873005,-1.56E-11,,
,8.875005,-1.58E-11,,
,8.877005,-1.59E-11,,
,8.879005,-1.63E-11,,
,8.881005,-1.68E-11,,
,8.883005,-1.69E-11,,
,8.885005,-1.66E-11,,
,8.887005,-1.58E-11,,
,8.889005,-1.52E-11,,
,8.891005,-1.46E-11,,
,8.893005,-1.48E-11,,
,8.895005,-1.52E-11,,
,8.897005,-1.59E-11,,
,8.899005,-1.61E-11,,
,8.901005,-1.65E-11,,
,8.903005,-1.61E-11,,
,8.905005,-1.58E-11,,
,8.907005,-1.54E-11,,
,8.909005,-1.54E-11,,
,8.911005,-1.57E-11,,
,8.913005,-1.61E-11,,
,8.915005,-1.65E-11,,
,8.917005,-1.65E-11,,
,8.919005,-1.62E-11,,
,8.921005,-1.60E-11,,
,8.923005,-1.55E-11,,
,8.925005,-1.55E-11,,
,8.927005,-1.58E-11,,
,8.929005,-1.69E-11,,
,8.931005,-1.75E-11,,
,8.933005,-1.78E-11,,
,8.935005,-1.77E-11,,
,8.937005,-1.75E-11,,
,8.939005,-1.72E-11,,
,8.941005,-1.71E-11,,
,8.943005,-1.73E-11,,
,8.945005,-1.78E-11,,
,8.947005,-1.85E-11,,
,8.949005,-1.90E-11,,
,8.951005,-1.92E-11,,
,8.953005,-1.90E-11,,
,8.955005,-1.84E-11,,
,8.957005,-1.78E-11,,
,8.959005,-1.77E-11,,
,8.961005,-1.84E-11,,
,8.963005,-1.91E-11,,
,8.965005,-1.97E-11,,
,8.967005,-1.98E-11,,
,8.969005,-1.97E-11,,
,8.971005,-1.92E-11,,
,8.973005,-1.89E-11,,
,8.975005,-1.87E-11,,
,8.977005,-1.90E-11,,
,8.979005,-1.96E-11,,
,8.981005,-2.01E-11,,
,8.983005,-2.02E-11,,
,8.985005,-2.00E-11,,
,8.987005,-1.95E-11,,
,8.989005,-1.89E-11,,
,8.991005,-1.82E-11,,
,8.993005,-1.80E-11,,
,8.995005,-1.84E-11,,
,8.997005,-1.90E-11,,
,8.999005,-1.95E-11,,
,9.001005,-1.95E-11,,
,9.003005,-1.91E-11,,
,9.005005,-1.89E-11,,
,9.007005,-1.86E-11,,
,9.009005,-1.88E-11,,
,9.011005,-1.90E-11,,
,9.013005,-1.96E-11,,
,9.015005,-1.99E-11,,
,9.017005,-2.01E-11,,
,9.019005,-1.98E-11,,
,9.021005,-1.91E-11,,
,9.023005,-1.82E-11,,
,9.025005,-1.77E-11,,
,9.027005,-1.76E-11,,
,9.029005,-1.80E-11,,
,9.031005,-1.84E-11,,
,9.033005,-1.87E-11,,
,9.035005,-1.88E-11,,
,9.037005,-1.84E-11,,
,9.039005,-1.82E-11,,
,9.041005,-1.77E-11,,
,9.043005,-1.78E-11,,
,9.045005,-1.82E-11,,
,9.047005,-1.88E-11,,
,9.049005,-1.89E-11,,
,9.051005,-1.88E-11,,
,9.053005,-1.86E-11,,
,9.055005,-1.82E-11,,
,9.057005,-1.75E-11,,
,9.059005,-1.71E-11,,
,9.061005,-1.75E-11,,
,9.063005,-1.83E-11,,
,9.065005,-1.89E-11,,
,9.067005,-1.93E-11,,
,9.069005,-1.90E-11,,
,9.071005,-1.89E-11,,
,9.073005,-1.84E-11,,
,9.075005,-1.86E-11,,
,9.077005,-1.87E-11,,
,9.079005,-1.95E-11,,
,9.081005,-1.99E-11,,
,9.083005,-2.01E-11,,
,9.085005,-1.98E-11,,
,9.087005,-1.92E-11,,
,9.089005,-1.85E-11,,
,9.091005,-1.77E-11,,
,9.093005,-1.75E-11,,
,9.095005,-1.80E-11,,
,9.097005,-1.86E-11,,
,9.099005,-1.89E-11,,
,9.101005,-1.88E-11,,
,9.103005,-1.86E-11,,
,9.105005,-1.83E-11,,
,9.107005,-1.81E-11,,
,9.109005,-1.78E-11,,
,9.111005,-1.82E-11,,
,9.113005,-1.85E-11,,
,9.115005,-1.89E-11,,
,9.117005,-1.89E-11,,
,9.119005,-1.88E-11,,
,9.121005,-1.81E-11,,
,9.123005,-1.73E-11,,
,9.125005,-1.67E-11,,
,9.127005,-1.67E-11,,
,9.129005,-1.71E-11,,
,9.131005,-1.75E-11,,
,9.133005,-1.81E-11,,
,9.135005,-1.81E-11,,
,9.137005,-1.78E-11,,
,9.139005,-1.73E-11,,
,9.141005,-1.70E-11,,
,9.143005,-1.70E-11,,
,9.145005,-1.74E-11,,
,9.147005,-1.78E-11,,
,9.149005,-1.82E-11,,
,9.151005,-1.78E-11,,
,9.153005,-1.72E-11,,
,9.155005,-1.62E-11,,
,9.157005,-1.55E-11,,
,9.159005,-1.52E-11,,
,9.161005,-1.54E-11,,
,9.163005,-1.60E-11,,
,9.165005,-1.67E-11,,
,9.167005,-1.70E-11,,
,9.169005,-1.71E-11,,
,9.171005,-1.68E-11,,
,9.173005,-1.66E-11,,
,9.175005,-1.63E-11,,
,9.177005,-1.65E-11,,
,9.179005,-1.68E-11,,
,9.181005,-1.70E-11,,
,9.183005,-1.71E-11,,
,9.185005,-1.68E-11,,
,9.187005,-1.63E-11,,
,9.189005,-1.57E-11,,
,9.191005,-1.54E-11,,
,9.193005,-1.53E-11,,
,9.195005,-1.59E-11,,
,9.197005,-1.66E-11,,
,9.199005,-1.72E-11,,
,9.201005,-1.72E-11,,
,9.203005,-1.71E-11,,
,9.205005,-1.69E-11,,
,9.207005,-1.67E-11,,
,9.209005,-1.63E-11,,
,9.211005,-1.66E-11,,
,9.213005,-1.68E-11,,
,9.215005,-1.72E-11,,
,9.217005,-1.71E-11,,
,9.219005,-1.68E-11,,
,9.221005,-1.63E-11,,
,9.223005,-1.55E-11,,
,9.225005,-1.52E-11,,
,9.227005,-1.52E-11,,
,9.229005,-1.59E-11,,
,9.231005,-1.65E-11,,
,9.233005,-1.67E-11,,
,9.235005,-1.65E-11,,
,9.237005,-1.62E-11,,
,9.239005,-1.59E-11,,
,9.241005,-1.56E-11,,
,9.243005,-1.55E-11,,
,9.245005,-1.56E-11,,
,9.247005,-1.60E-11,,
,9.249005,-1.62E-11,,
,9.251005,-1.61E-11,,
,9.253005,-1.55E-11,,
,9.255005,-1.49E-11,,
,9.257005,-1.45E-11,,
,9.259005,-1.43E-11,,
,9.261005,-1.43E-11,,
,9.263005,-1.47E-11,,
,9.265005,-1.54E-11,,
,9.267005,-1.57E-11,,
,9.269005,-1.55E-11,,
,9.271005,-1.48E-11,,
,9.273005,-1.45E-11,,
,9.275005,-1.45E-11,,
,9.277005,-1.48E-11,,
,9.279005,-1.52E-11,,
,9.281005,-1.53E-11,,
,9.283005,-1.56E-11,,
,9.285005,-1.53E-11,,
,9.287005,-1.47E-11,,
,9.289005,-1.37E-11,,
,9.291005,-1.30E-11,,
,9.293005,-1.31E-11,,
,9.295005,-1.36E-11,,
,9.297005,-1.43E-11,,
,9.299005,-1.46E-11,,
,9.301005,-1.49E-11,,
,9.303005,-1.47E-11,,
,9.305005,-1.46E-11,,
,9.307005,-1.42E-11,,
,9.309005,-1.43E-11,,
,9.311005,-1.44E-11,,
,9.313005,-1.51E-11,,
,9.315005,-1.54E-11,,
,9.317005,-1.53E-11,,
,9.319005,-1.48E-11,,
,9.321005,-1.43E-11,,
,9.323005,-1.39E-11,,
,9.325005,-1.37E-11,,
,9.327005,-1.38E-11,,
,9.329005,-1.44E-11,,
,9.331005,-1.52E-11,,
,9.333005,-1.58E-11,,
,9.335005,-1.59E-11,,
,9.337005,-1.56E-11,,
,9.339005,-1.53E-11,,
,9.341005,-1.51E-11,,
,9.343005,-1.53E-11,,
,9.345005,-1.54E-11,,
,9.347005,-1.56E-11,,
,9.349005,-1.56E-11,,
,9.351005,-1.55E-11,,
,9.353005,-1.52E-11,,
,9.355005,-1.45E-11,,
,9.357005,-1.39E-11,,
,9.359005,-1.34E-11,,
,9.361005,-1.37E-11,,
,9.363005,-1.43E-11,,
,9.365005,-1.47E-11,,
,9.367005,-1.51E-11,,
,9.369005,-1.48E-11,,
,9.371005,-1.48E-11,,
,9.373005,-1.44E-11,,
,9.375005,-1.40E-11,,
,9.377005,-1.38E-11,,
,9.379005,-1.39E-11,,
,9.381005,-1.44E-11,,
,9.383005,-1.45E-11,,
,9.385005,-1.46E-11,,
,9.387005,-1.40E-11,,
,9.389005,-1.33E-11,,
,9.391005,-1.26E-11,,
,9.393005,-1.25E-11,,
,9.395005,-1.28E-11,,
,9.397005,-1.32E-11,,
,9.399005,-1.34E-11,,
,9.401005,-1.34E-11,,
,9.403005,-1.32E-11,,
,9.405005,-1.27E-11,,
,9.407005,-1.22E-11,,
,9.409005,-1.19E-11,,
,9.411005,-1.23E-11,,
,9.413005,-1.27E-11,,
,9.415005,-1.28E-11,,
,9.417005,-1.27E-11,,
,9.419005,-1.20E-11,,
,9.421005,-1.13E-11,,
,9.423005,-1.03E-11,,
,9.425005,-9.90E-12,,
,9.427005,-9.69E-12,,
,9.429005,-9.90E-12,,
,9.431005,-1.00E-11,,
,9.433005,-1.03E-11,,
,9.435005,-1.03E-11,,
,9.437005,-1.00E-11,,
,9.439005,-9.37E-12,,
,9.441005,-9.26E-12,,
,9.443005,-9.37E-12,,
,9.445005,-9.69E-12,,
,9.447005,-9.69E-12,,
,9.449005,-9.90E-12,,
,9.451005,-9.69E-12,,
,9.453005,-9.26E-12,,
,9.455005,-8.83E-12,,
,9.457005,-8.51E-12,,
,9.459005,-8.40E-12,,
,9.461005,-8.51E-12,,
,9.463005,-8.83E-12,,
,9.465005,-9.26E-12,,
,9.467005,-9.15E-12,,
,9.469005,-9.15E-12,,
,9.471005,-8.72E-12,,
,9.473005,-8.51E-12,,
,9.475005,-8.18E-12,,
,9.477005,-8.51E-12,,
,9.479005,-9.04E-12,,
,9.481005,-9.58E-12,,
,9.483005,-9.58E-12,,
,9.485005,-9.15E-12,,
,9.487005,-8.29E-12,,
,9.489005,-7.65E-12,,
,9.491005,-7.00E-12,,
,9.493005,-7.00E-12,,
,9.495005,-7.22E-12,,
,9.497005,-7.86E-12,,
,9.499005,-8.18E-12,,
,9.501005,-8.18E-12,,
,9.503005,-7.86E-12,,
,9.505005,-7.54E-12,,
,9.507005,-7.22E-12,,
,9.509005,-7.00E-12,,
,9.511005,-7.22E-12,,
,9.513005,-7.65E-12,,
,9.515005,-7.97E-12,,
,9.517005,-7.75E-12,,
,9.519005,-7.33E-12,,
,9.521005,-6.68E-12,,
,9.523005,-5.93E-12,,
,9.525005,-5.39E-12,,
,9.527005,-5.39E-12,,
,9.529005,-5.93E-12,,
,9.531005,-6.47E-12,,
,9.533005,-6.68E-12,,
,9.535005,-6.68E-12,,
,9.537005,-6.14E-12,,
,9.539005,-5.72E-12,,
,9.541005,-5.18E-12,,
,9.543005,-5.29E-12,,
,9.545005,-5.61E-12,,
,9.547005,-5.93E-12,,
,9.549005,-6.04E-12,,
,9.551005,-5.72E-12,,
,9.553005,-5.50E-12,,
,9.555005,-5.07E-12,,
,9.557005,-4.64E-12,,
,9.559005,-4.43E-12,,
,9.561005,-4.64E-12,,
,9.563005,-5.18E-12,,
,9.565005,-5.72E-12,,
,9.567005,-5.72E-12,,
,9.569005,-5.61E-12,,
,9.571005,-4.96E-12,,
,9.573005,-4.86E-12,,
,9.575005,-4.75E-12,,
,9.577005,-4.96E-12,,
,9.579005,-5.18E-12,,
,9.581005,-5.61E-12,,
,9.583005,-5.93E-12,,
,9.585005,-5.93E-12,,
,9.587005,-5.61E-12,,
,9.589005,-5.18E-12,,
,9.591005,-4.86E-12,,
,9.593005,-4.75E-12,,
,9.595005,-5.07E-12,,
,9.597005,-5.61E-12,,
,9.599005,-6.04E-12,,
,9.601005,-6.36E-12,,
,9.603005,-6.14E-12,,
,9.605005,-5.82E-12,,
,9.607005,-5.50E-12,,
,9.609005,-5.39E-12,,
,9.611005,-6.04E-12,,
,9.613005,-6.36E-12,,
,9.615005,-7.00E-12,,
,9.617005,-6.90E-12,,
,9.619005,-6.90E-12,,
,9.621005,-6.47E-12,,
,9.623005,-5.93E-12,,
,9.625005,-5.39E-12,,
,9.627005,-5.29E-12,,
,9.629005,-5.50E-12,,
,9.631005,-5.93E-12,,
,9.633005,-6.04E-12,,
,9.635005,-5.93E-12,,
,9.637005,-5.72E-12,,
,9.639005,-5.29E-12,,
,9.641005,-5.07E-12,,
,9.643005,-4.96E-12,,
,9.645005,-5.50E-12,,
,9.647005,-5.82E-12,,
,9.649005,-5.93E-12,,
,9.651005,-5.61E-12,,
,9.653005,-4.96E-12,,
,9.655005,-4.10E-12,,
,9.657005,-3.35E-12,,
,9.659005,-2.82E-12,,
,9.661005,-3.14E-12,,
,9.663005,-3.46E-12,,
,9.665005,-4.00E-12,,
,9.667005,-4.00E-12,,
,9.669005,-4.00E-12,,
,9.671005,-3.57E-12,,
,9.673005,-3.25E-12,,
,9.675005,-2.92E-12,,
,9.677005,-3.25E-12,,
,9.679005,-3.68E-12,,
,9.681005,-3.89E-12,,
,9.683005,-4.00E-12,,
,9.685005,-3.46E-12,,
,9.687005,-3.03E-12,,
,9.689005,-2.28E-12,,
,9.691005,-1.85E-12,,
,9.693005,-1.53E-12,,
,9.695005,-1.74E-12,,
,9.697005,-2.17E-12,,
,9.699005,-2.82E-12,,
,9.701005,-2.71E-12,,
,9.703005,-2.71E-12,,
,9.705005,-2.17E-12,,
,9.707005,-2.07E-12,,
,9.709005,-1.96E-12,,
,9.711005,-2.28E-12,,
,9.713005,-2.60E-12,,
,9.715005,-2.92E-12,,
,9.717005,-2.92E-12,,
,9.719005,-2.60E-12,,
,9.721005,-1.85E-12,,
,9.723005,-8.84E-13,,
,9.725005,-3.47E-13,,
,9.727005,-2.40E-13,,
,9.729005,-8.84E-13,,
,9.731005,-1.42E-12,,
,9.733005,-1.74E-12,,
,9.735005,-1.74E-12,,
,9.737005,-1.74E-12,,
,9.739005,-1.53E-12,,
,9.741005,-1.42E-12,,
,9.743005,-1.42E-12,,
,9.745005,-1.85E-12,,
,9.747005,-2.17E-12,,
,9.749005,-2.39E-12,,
,9.751005,-1.96E-12,,
,9.753005,-1.31E-12,,
,9.755005,-4.55E-13,,
,9.757005,8.20E-14,,
,9.759005,2.97E-13,,
,9.761005,-1.33E-13,,
,9.763005,-8.84E-13,,
,9.765005,-1.53E-12,,
,9.767005,-1.85E-12,,
,9.769005,-1.96E-12,,
,9.771005,-1.74E-12,,
,9.773005,-1.53E-12,,
,9.775005,-1.53E-12,,
,9.777005,-1.85E-12,,
,9.779005,-2.39E-12,,
,9.781005,-2.71E-12,,
,9.783005,-3.03E-12,,
,9.785005,-3.03E-12,,
,9.787005,-2.71E-12,,
,9.789005,-2.17E-12,,
,9.791005,-1.64E-12,,
,9.793005,-1.64E-12,,
,9.795005,-2.17E-12,,
,9.797005,-2.92E-12,,
,9.799005,-3.57E-12,,
,9.801005,-4.10E-12,,
,9.803005,-4.10E-12,,
,9.805005,-3.89E-12,,
,9.807005,-3.25E-12,,
,9.809005,-3.46E-12,,
,9.811005,-4.00E-12,,
,9.813005,-4.86E-12,,
,9.815005,-5.18E-12,,
,9.817005,-4.96E-12,,
,9.819005,-4.53E-12,,
,9.821005,-4.00E-12,,
,9.823005,-3.46E-12,,
,9.825005,-3.25E-12,,
,9.827005,-3.25E-12,,
,9.829005,-3.78E-12,,
,9.831005,-4.32E-12,,
,9.833005,-4.53E-12,,
,9.835005,-4.53E-12,,
,9.837005,-4.10E-12,,
,9.839005,-3.78E-12,,
,9.841005,-3.46E-12,,
,9.843005,-3.68E-12,,
,9.845005,-4.00E-12,,
,9.847005,-4.43E-12,,
,9.849005,-4.32E-12,,
,9.851005,-4.21E-12,,
,9.853005,-3.57E-12,,
,9.855005,-3.14E-12,,
,9.857005,-2.49E-12,,
,9.859005,-2.49E-12,,
,9.861005,-2.60E-12,,
,9.863005,-3.14E-12,,
,9.865005,-3.35E-12,,
,9.867005,-3.46E-12,,
,9.869005,-3.25E-12,,
,9.871005,-2.92E-12,,
,9.873005,-2.49E-12,,
,9.875005,-2.28E-12,,
,9.877005,-2.49E-12,,
,9.879005,-2.92E-12,,
,9.881005,-3.14E-12,,
,9.883005,-3.25E-12,,
,9.885005,-2.92E-12,,
,9.887005,-2.49E-12,,
,9.889005,-1.64E-12,,
,9.891005,-9.92E-13,,
,9.893005,-7.77E-13,,
,9.895005,-1.10E-12,,
,9.897005,-1.42E-12,,
,9.899005,-1.53E-12,,
,9.901005,-1.42E-12,,
,9.903005,-1.10E-12,,
,9.905005,-3.47E-13,,
,9.907005,4.04E-13,,
,9.909005,6.19E-13,,
,9.911005,4.04E-13,,
,9.913005,-2.53E-14,,
,9.915005,1.89E-13,,
,9.917005,4.04E-13,,
,9.919005,1.16E-12,,
,9.921005,1.91E-12,,
,9.923005,2.66E-12,,
,9.925005,3.30E-12,,
,9.927005,3.30E-12,,
,9.929005,3.30E-12,,
,9.931005,2.87E-12,,
,9.933005,2.66E-12,,
,9.935005,2.44E-12,,
,9.937005,2.87E-12,,
,9.939005,3.41E-12,,
,9.941005,4.05E-12,,
,9.943005,4.27E-12,,
,9.945005,4.27E-12,,
,9.947005,3.95E-12,,
,9.949005,3.73E-12,,
,9.951005,3.62E-12,,
,9.953005,4.16E-12,,
,9.955005,4.81E-12,,
,9.957005,5.45E-12,,
,9.959005,5.56E-12,,
,9.961005,5.02E-12,,
,9.963005,4.38E-12,,
,9.965005,3.62E-12,,
,9.967005,3.30E-12,,
,9.969005,3.30E-12,,
,9.971005,3.30E-12,,
,9.973005,3.41E-12,,
,9.975005,3.30E-12,,
,9.977005,2.87E-12,,
,9.979005,2.23E-12,,
,9.981005,1.59E-12,,
,9.983005,1.26E-12,,
,9.985005,1.16E-12,,
,9.987005,1.05E-12,,
,9.989005,1.26E-12,,
,9.991005,1.26E-12,,
,9.993005,9.41E-13,,
,9.995005,-2.53E-14,,
,9.997005,-1.10E-12,,
,9.999005,-1.85E-12,,
,10.001005,-1.96E-12,,
,10.003005,-2.07E-12,,
,10.005005,-1.96E-12,,
,10.007005,-1.85E-12,,
,10.009005,-1.96E-12,,
,10.011005,-2.71E-12,,
,10.013005,-3.57E-12,,
,10.015005,-4.00E-12,,
,10.017005,-4.00E-12,,
,10.019005,-3.89E-12,,
,10.021005,-3.57E-12,,
,10.023005,-3.35E-12,,
,10.025005,-3.25E-12,,
,10.027005,-3.68E-12,,
,10.029005,-4.43E-12,,
,10.031005,-5.29E-12,,
,10.033005,-6.04E-12,,
,10.035005,-6.36E-12,,
,10.037005,-6.36E-12,,
,10.039005,-5.93E-12,,
,10.041005,-5.72E-12,,
,10.043005,-5.93E-12,,
,10.045005,-6.90E-12,,
,10.047005,-7.75E-12,,
,10.049005,-8.51E-12,,
,10.051005,-8.83E-12,,
,10.053005,-8.94E-12,,
,10.055005,-8.72E-12,,
,10.057005,-8.18E-12,,
,10.059005,-8.18E-12,,
,10.061005,-8.83E-12,,
,10.063005,-1.02E-11,,
,10.065005,-1.10E-11,,
,10.067005,-1.12E-11,,
,10.069005,-1.10E-11,,
,10.071005,-1.09E-11,,
,10.073005,-1.09E-11,,
,10.075005,-1.10E-11,,
,10.077005,-1.12E-11,,
,10.079005,-1.19E-11,,
,10.081005,-1.26E-11,,
,10.083005,-1.32E-11,,
,10.085005,-1.32E-11,,
,10.087005,-1.29E-11,,
,10.089005,-1.25E-11,,
,10.091005,-1.19E-11,,
,10.093005,-1.18E-11,,
,10.095005,-1.22E-11,,
,10.097005,-1.27E-11,,
,10.099005,-1.30E-11,,
,10.101005,-1.30E-11,,
,10.103005,-1.27E-11,,
,10.105005,-1.23E-11,,
,10.107005,-1.16E-11,,
,10.109005,-1.15E-11,,
,10.111005,-1.19E-11,,
,10.113005,-1.28E-11,,
,10.115005,-1.36E-11,,
,10.117005,-1.34E-11,,
,10.119005,-1.33E-11,,
,10.121005,-1.28E-11,,
,10.123005,-1.25E-11,,
,10.125005,-1.19E-11,,
,10.127005,-1.19E-11,,
,10.129005,-1.25E-11,,
,10.131005,-1.29E-11,,
,10.133005,-1.32E-11,,
,10.135005,-1.32E-11,,
,10.137005,-1.32E-11,,
,10.139005,-1.32E-11,,
,10.141005,-1.33E-11,,
,10.143005,-1.40E-11,,
,10.145005,-1.45E-11,,
,10.147005,-1.52E-11,,
,10.149005,-1.55E-11,,
,10.151005,-1.57E-11,,
,10.153005,-1.54E-11,,
,10.155005,-1.46E-11,,
,10.157005,-1.37E-11,,
,10.159005,-1.31E-11,,
,10.161005,-1.30E-11,,
,10.163005,-1.36E-11,,
,10.165005,-1.40E-11,,
,10.167005,-1.43E-11,,
,10.169005,-1.42E-11,,
,10.171005,-1.38E-11,,
,10.173005,-1.31E-11,,
,10.175005,-1.27E-11,,
,10.177005,-1.28E-11,,
,10.179005,-1.34E-11,,
,10.181005,-1.39E-11,,
,10.183005,-1.41E-11,,
,10.185005,-1.37E-11,,
,10.187005,-1.32E-11,,
,10.189005,-1.25E-11,,
,10.191005,-1.19E-11,,
,10.193005,-1.15E-11,,
,10.195005,-1.17E-11,,
,10.197005,-1.20E-11,,
,10.199005,-1.26E-11,,
,10.201005,-1.25E-11,,
,10.203005,-1.23E-11,,
,10.205005,-1.18E-11,,
,10.207005,-1.17E-11,,
,10.209005,-1.15E-11,,
,10.211005,-1.16E-11,,
,10.213005,-1.18E-11,,
,10.215005,-1.22E-11,,
,10.217005,-1.19E-11,,
,10.219005,-1.17E-11,,
,10.221005,-1.11E-11,,
,10.223005,-1.05E-11,,
,10.225005,-9.90E-12,,
,10.227005,-1.00E-11,,
,10.229005,-1.04E-11,,
,10.231005,-1.14E-11,,
,10.233005,-1.23E-11,,
,10.235005,-1.27E-11,,
,10.237005,-1.25E-11,,
,10.239005,-1.22E-11,,
,10.241005,-1.23E-11,,
,10.243005,-1.27E-11,,
,10.245005,-1.33E-11,,
,10.247005,-1.40E-11,,
,10.249005,-1.44E-11,,
,10.251005,-1.44E-11,,
,10.253005,-1.41E-11,,
,10.255005,-1.36E-11,,
,10.257005,-1.30E-11,,
,10.259005,-1.29E-11,,
,10.261005,-1.32E-11,,
,10.263005,-1.41E-11,,
,10.265005,-1.47E-11,,
,10.267005,-1.52E-11,,
,10.269005,-1.53E-11,,
,10.271005,-1.51E-11,,
,10.273005,-1.47E-11,,
,10.275005,-1.44E-11,,
,10.277005,-1.42E-11,,
,10.279005,-1.44E-11,,
,10.281005,-1.44E-11,,
,10.283005,-1.44E-11,,
,10.285005,-1.39E-11,,
,10.287005,-1.33E-11,,
,10.289005,-1.24E-11,,
,10.291005,-1.14E-11,,
,10.293005,-1.12E-11,,
,10.295005,-1.16E-11,,
,10.297005,-1.24E-11,,
,10.299005,-1.27E-11,,
,10.301005,-1.28E-11,,
,10.303005,-1.24E-11,,
,10.305005,-1.17E-11,,
,10.307005,-1.10E-11,,
,10.309005,-1.08E-11,,
,10.311005,-1.08E-11,,
,10.313005,-1.11E-11,,
,10.315005,-1.12E-11,,
,10.317005,-1.10E-11,,
,10.319005,-1.03E-11,,
,10.321005,-9.47E-12,,
,10.323005,-8.61E-12,,
,10.325005,-8.18E-12,,
,10.327005,-8.18E-12,,
,10.329005,-8.40E-12,,
,10.331005,-8.51E-12,,
,10.333005,-8.61E-12,,
,10.335005,-8.40E-12,,
,10.337005,-8.08E-12,,
,10.339005,-7.22E-12,,
,10.341005,-6.79E-12,,
,10.343005,-6.36E-12,,
,10.345005,-6.57E-12,,
,10.347005,-6.90E-12,,
,10.349005,-7.11E-12,,
,10.351005,-6.90E-12,,
,10.353005,-6.14E-12,,
,10.355005,-5.50E-12,,
,10.357005,-4.86E-12,,
,10.359005,-4.53E-12,,
,10.361005,-4.75E-12,,
,10.363005,-5.18E-12,,
,10.365005,-5.61E-12,,
,10.367005,-5.50E-12,,
,10.369005,-5.29E-12,,
,10.371005,-4.96E-12,,
,10.373005,-4.64E-12,,
,10.375005,-4.21E-12,,
,10.377005,-4.21E-12,,
,10.379005,-4.64E-12,,
,10.381005,-5.07E-12,,
,10.383005,-5.29E-12,,
,10.385005,-5.07E-12,,
,10.387005,-4.96E-12,,
,10.389005,-4.53E-12,,
,10.391005,-3.89E-12,,
,10.393005,-3.57E-12,,
,10.395005,-3.89E-12,,
,10.397005,-4.64E-12,,
,10.399005,-5.18E-12,,
,10.401005,-5.50E-12,,
,10.403005,-5.39E-12,,
,10.405005,-5.18E-12,,
,10.407005,-4.86E-12,,
,10.409005,-4.75E-12,,
,10.411005,-5.18E-12,,
,10.413005,-5.82E-12,,
,10.415005,-6.47E-12,,
,10.417005,-6.68E-12,,
,10.419005,-6.47E-12,,
,10.421005,-5.93E-12,,
,10.423005,-5.50E-12,,
,10.425005,-5.18E-12,,
,10.427005,-5.39E-12,,
,10.429005,-6.04E-12,,
,10.431005,-6.57E-12,,
,10.433005,-6.90E-12,,
,10.435005,-6.90E-12,,
,10.437005,-6.68E-12,,
,10.439005,-6.36E-12,,
,10.441005,-6.04E-12,,
,10.443005,-6.36E-12,,
,10.445005,-7.11E-12,,
,10.447005,-7.75E-12,,
,10.449005,-7.97E-12,,
,10.451005,-7.97E-12,,
,10.453005,-7.65E-12,,
,10.455005,-7.22E-12,,
,10.457005,-6.79E-12,,
,10.459005,-6.68E-12,,
,10.461005,-7.43E-12,,
,10.463005,-8.08E-12,,
,10.465005,-8.83E-12,,
,10.467005,-8.83E-12,,
,10.469005,-8.83E-12,,
,10.471005,-8.51E-12,,
,10.473005,-7.97E-12,,
,10.475005,-7.86E-12,,
,10.477005,-7.97E-12,,
,10.479005,-8.61E-12,,
,10.481005,-8.83E-12,,
,10.483005,-9.15E-12,,
,10.485005,-8.83E-12,,
,10.487005,-8.51E-12,,
,10.489005,-7.65E-12,,
,10.491005,-7.33E-12,,
,10.493005,-7.22E-12,,
,10.495005,-7.75E-12,,
,10.497005,-8.08E-12,,
,10.499005,-8.40E-12,,
,10.501005,-8.40E-12,,
,10.503005,-8.18E-12,,
,10.505005,-7.75E-12,,
,10.507005,-7.11E-12,,
,10.509005,-6.79E-12,,
,10.511005,-6.90E-12,,
,10.513005,-7.33E-12,,
,10.515005,-7.75E-12,,
,10.517005,-7.97E-12,,
,10.519005,-7.86E-12,,
,10.521005,-7.43E-12,,
,10.523005,-6.47E-12,,
,10.525005,-6.04E-12,,
,10.527005,-6.14E-12,,
,10.529005,-6.68E-12,,
,10.531005,-6.90E-12,,
,10.533005,-7.00E-12,,
,10.535005,-6.90E-12,,
,10.537005,-6.57E-12,,
,10.539005,-5.82E-12,,
,10.541005,-5.39E-12,,
,10.543005,-5.39E-12,,
,10.545005,-5.82E-12,,
,10.547005,-6.14E-12,,
,10.549005,-6.14E-12,,
,10.551005,-5.82E-12,,
,10.553005,-5.50E-12,,
,10.555005,-4.86E-12,,
,10.557005,-4.43E-12,,
,10.559005,-4.00E-12,,
,10.561005,-4.21E-12,,
,10.563005,-4.64E-12,,
,10.565005,-5.07E-12,,
,10.567005,-5.50E-12,,
,10.569005,-5.39E-12,,
,10.571005,-5.29E-12,,
,10.573005,-4.86E-12,,
,10.575005,-4.53E-12,,
,10.577005,-4.43E-12,,
,10.579005,-4.64E-12,,
,10.581005,-4.86E-12,,
,10.583005,-4.96E-12,,
,10.585005,-4.43E-12,,
,10.587005,-4.00E-12,,
,10.589005,-3.25E-12,,
,10.591005,-2.82E-12,,
,10.593005,-2.71E-12,,
,10.595005,-2.92E-12,,
,10.597005,-3.57E-12,,
,10.599005,-4.00E-12,,
,10.601005,-4.10E-12,,
,10.603005,-3.78E-12,,
,10.605005,-3.03E-12,,
,10.607005,-2.49E-12,,
,10.609005,-2.39E-12,,
,10.611005,-2.92E-12,,
,10.613005,-3.35E-12,,
,10.615005,-3.35E-12,,
,10.617005,-3.03E-12,,
,10.619005,-2.82E-12,,
,10.621005,-2.49E-12,,
,10.623005,-2.07E-12,,
,10.625005,-1.42E-12,,
,10.627005,-1.53E-12,,
,10.629005,-1.85E-12,,
,10.631005,-2.60E-12,,
,10.633005,-2.82E-12,,
,10.635005,-2.71E-12,,
,10.637005,-2.39E-12,,
,10.639005,-1.74E-12,,
,10.641005,-1.42E-12,,
,10.643005,-1.21E-12,,
,10.645005,-1.53E-12,,
,10.647005,-1.85E-12,,
,10.649005,-2.28E-12,,
,10.651005,-2.17E-12,,
,10.653005,-1.96E-12,,
,10.655005,-1.53E-12,,
,10.657005,-1.53E-12,,
,10.659005,-1.64E-12,,
,10.661005,-2.07E-12,,
,10.663005,-2.49E-12,,
,10.665005,-3.25E-12,,
,10.667005,-3.35E-12,,
,10.669005,-3.35E-12,,
,10.671005,-2.82E-12,,
,10.673005,-2.71E-12,,
,10.675005,-2.49E-12,,
,10.677005,-2.71E-12,,
,10.679005,-3.14E-12,,
,10.681005,-3.78E-12,,
,10.683005,-4.32E-12,,
,10.685005,-4.43E-12,,
,10.687005,-4.32E-12,,
,10.689005,-4.00E-12,,
,10.691005,-3.89E-12,,
,10.693005,-3.89E-12,,
,10.695005,-4.43E-12,,
,10.697005,-5.18E-12,,
,10.699005,-5.82E-12,,
,10.701005,-6.14E-12,,
,10.703005,-5.82E-12,,
,10.705005,-5.18E-12,,
,10.707005,-4.53E-12,,
,10.709005,-4.43E-12,,
,10.711005,-4.86E-12,,
,10.713005,-5.50E-12,,
,10.715005,-5.93E-12,,
,10.717005,-6.14E-12,,
,10.719005,-6.04E-12,,
,10.721005,-5.72E-12,,
,10.723005,-5.50E-12,,
,10.725005,-5.29E-12,,
,10.727005,-5.50E-12,,
,10.729005,-6.25E-12,,
,10.731005,-6.90E-12,,
,10.733005,-7.33E-12,,
,10.735005,-7.00E-12,,
,10.737005,-6.47E-12,,
,10.739005,-5.93E-12,,
,10.741005,-5.61E-12,,
,10.743005,-5.72E-12,,
,10.745005,-6.14E-12,,
,10.747005,-6.68E-12,,
,10.749005,-7.11E-12,,
,10.751005,-7.22E-12,,
,10.753005,-7.11E-12,,
,10.755005,-6.68E-12,,
,10.757005,-6.25E-12,,
,10.759005,-6.14E-12,,
,10.761005,-6.57E-12,,
,10.763005,-7.22E-12,,
,10.765005,-7.54E-12,,
,10.767005,-7.65E-12,,
,10.769005,-7.33E-12,,
,10.771005,-6.90E-12,,
,10.773005,-6.25E-12,,
,10.775005,-5.93E-12,,
,10.777005,-6.04E-12,,
,10.779005,-6.47E-12,,
,10.781005,-6.90E-12,,
,10.783005,-7.22E-12,,
,10.785005,-7.43E-12,,
,10.787005,-7.22E-12,,
,10.789005,-6.47E-12,,
,10.791005,-5.93E-12,,
,10.793005,-5.72E-12,,
,10.795005,-6.04E-12,,
,10.797005,-6.04E-12,,
,10.799005,-6.25E-12,,
,10.801005,-5.82E-12,,
,10.803005,-5.29E-12,,
,10.805005,-4.53E-12,,
,10.807005,-4.10E-12,,
,10.809005,-4.00E-12,,
,10.811005,-4.32E-12,,
,10.813005,-5.07E-12,,
,10.815005,-5.72E-12,,
,10.817005,-5.82E-12,,
,10.819005,-5.50E-12,,
,10.821005,-5.07E-12,,
,10.823005,-4.53E-12,,
,10.825005,-4.32E-12,,
,10.827005,-4.21E-12,,
,10.829005,-4.43E-12,,
,10.831005,-4.64E-12,,
,10.833005,-4.86E-12,,
,10.835005,-4.75E-12,,
,10.837005,-4.43E-12,,
,10.839005,-4.00E-12,,
,10.841005,-3.78E-12,,
,10.843005,-3.78E-12,,
,10.845005,-4.21E-12,,
,10.847005,-4.96E-12,,
,10.849005,-5.39E-12,,
,10.851005,-5.39E-12,,
,10.853005,-5.07E-12,,
,10.855005,-4.53E-12,,
,10.857005,-4.21E-12,,
,10.859005,-3.57E-12,,
,10.861005,-3.46E-12,,
,10.863005,-3.46E-12,,
,10.865005,-3.89E-12,,
,10.867005,-4.10E-12,,
,10.869005,-4.00E-12,,
,10.871005,-3.46E-12,,
,10.873005,-3.03E-12,,
,10.875005,-2.82E-12,,
,10.877005,-3.25E-12,,
,10.879005,-3.78E-12,,
,10.881005,-4.21E-12,,
,10.883005,-4.32E-12,,
,10.885005,-4.43E-12,,
,10.887005,-4.43E-12,,
,10.889005,-3.89E-12,,
,10.891005,-3.57E-12,,
,10.893005,-3.35E-12,,
,10.895005,-3.78E-12,,
,10.897005,-4.10E-12,,
,10.899005,-4.32E-12,,
,10.901005,-4.21E-12,,
,10.903005,-4.10E-12,,
,10.905005,-3.78E-12,,
,10.907005,-3.68E-12,,
,10.909005,-3.57E-12,,
,10.911005,-4.10E-12,,
,10.913005,-4.64E-12,,
,10.915005,-5.07E-12,,
,10.917005,-5.07E-12,,
,10.919005,-4.96E-12,,
,10.921005,-4.53E-12,,
,10.923005,-4.10E-12,,
,10.925005,-3.89E-12,,
,10.927005,-4.00E-12,,
,10.929005,-4.53E-12,,
,10.931005,-5.07E-12,,
,10.933005,-5.29E-12,,
,10.935005,-5.07E-12,,
,10.937005,-4.64E-12,,
,10.939005,-4.32E-12,,
,10.941005,-4.21E-12,,
,10.943005,-4.21E-12,,
,10.945005,-4.64E-12,,
,10.947005,-5.29E-12,,
,10.949005,-6.04E-12,,
,10.951005,-6.36E-12,,
,10.953005,-6.14E-12,,
,10.955005,-5.61E-12,,
,10.957005,-4.96E-12,,
,10.959005,-4.86E-12,,
,10.961005,-5.29E-12,,
,10.963005,-5.93E-12,,
,10.965005,-6.57E-12,,
,10.967005,-6.90E-12,,
,10.969005,-7.00E-12,,
,10.971005,-6.79E-12,,
