5/3/2019, 2:15:51 PM ,,,
 Current Sensitivity ,1.00E-09,,,
 This file comes from It only measurement ,0.00E+00,,,
 Sampling rate ,500,,,
 Number of samples per channel ,-1,,,
 No filter from Labview , , , ,
 , ,,,
 ***End_of_Header*** ,,,,
 , Time , Current , Filtered Current , 
,0.001004,1.68E-11,,
,0.003004,3.30E-11,,
,0.005004,4.88E-11,,
,0.007004,4.73E-11,,
,0.009004,4.61E-11,,
,0.011004,4.47E-11,,
,0.013004,4.39E-11,,
,0.015004,4.27E-11,,
,0.017004,4.16E-11,,
,0.019004,3.97E-11,,
,0.021004,3.81E-11,,
,0.023004,3.63E-11,,
,0.025004,3.53E-11,,
,0.027004,3.45E-11,,
,0.029004,3.42E-11,,
,0.031004,3.34E-11,,
,0.033004,3.22E-11,,
,0.035004,3.08E-11,,
,0.037004,2.94E-11,,
,0.039004,2.81E-11,,
,0.041004,2.70E-11,,
,0.043004,2.62E-11,,
,0.045004,2.55E-11,,
,0.047004,2.48E-11,,
,0.049004,2.40E-11,,
,0.051004,2.31E-11,,
,0.053004,2.17E-11,,
,0.055004,2.05E-11,,
,0.057004,1.94E-11,,
,0.059004,1.89E-11,,
,0.061004,1.85E-11,,
,0.063004,1.83E-11,,
,0.065004,1.82E-11,,
,0.067004,1.76E-11,,
,0.069004,1.66E-11,,
,0.071004,1.54E-11,,
,0.073004,1.44E-11,,
,0.075004,1.38E-11,,
,0.077004,1.35E-11,,
,0.079004,1.34E-11,,
,0.081004,1.30E-11,,
,0.083004,1.24E-11,,
,0.085004,1.17E-11,,
,0.087004,1.09E-11,,
,0.089004,1.04E-11,,
,0.091004,9.96E-12,,
,0.093004,9.85E-12,,
,0.095004,9.85E-12,,
,0.097004,9.85E-12,,
,0.099004,9.74E-12,,
,0.101004,8.89E-12,,
,0.103004,8.24E-12,,
,0.105004,7.38E-12,,
,0.107004,7.06E-12,,
,0.109004,6.74E-12,,
,0.111004,6.85E-12,,
,0.113004,7.06E-12,,
,0.115004,7.27E-12,,
,0.117004,7.06E-12,,
,0.119004,6.63E-12,,
,0.121004,5.99E-12,,
,0.123004,5.56E-12,,
,0.125004,5.56E-12,,
,0.127004,5.99E-12,,
,0.129004,6.42E-12,,
,0.131004,6.63E-12,,
,0.133004,6.52E-12,,
,0.135004,6.20E-12,,
,0.137004,5.77E-12,,
,0.139004,5.34E-12,,
,0.141004,5.45E-12,,
,0.143004,5.56E-12,,
,0.145004,5.88E-12,,
,0.147004,5.88E-12,,
,0.149004,5.88E-12,,
,0.151004,5.66E-12,,
,0.153004,5.24E-12,,
,0.155004,5.24E-12,,
,0.157004,5.13E-12,,
,0.159004,5.34E-12,,
,0.161004,5.34E-12,,
,0.163004,5.77E-12,,
,0.165004,5.99E-12,,
,0.167004,5.77E-12,,
,0.169004,5.02E-12,,
,0.171004,4.48E-12,,
,0.173004,4.16E-12,,
,0.175004,4.48E-12,,
,0.177004,4.81E-12,,
,0.179004,5.34E-12,,
,0.181004,5.56E-12,,
,0.183004,5.45E-12,,
,0.185004,5.02E-12,,
,0.187004,4.38E-12,,
,0.189004,4.16E-12,,
,0.191004,3.95E-12,,
,0.193004,4.27E-12,,
,0.195004,4.38E-12,,
,0.197004,4.81E-12,,
,0.199004,4.70E-12,,
,0.201004,4.38E-12,,
,0.203004,3.62E-12,,
,0.205004,3.09E-12,,
,0.207004,2.66E-12,,
,0.209004,2.77E-12,,
,0.211004,3.09E-12,,
,0.213004,3.62E-12,,
,0.215004,3.73E-12,,
,0.217004,3.41E-12,,
,0.219004,2.77E-12,,
,0.221004,2.12E-12,,
,0.223004,1.69E-12,,
,0.225004,1.59E-12,,
,0.227004,1.91E-12,,
,0.229004,2.23E-12,,
,0.231004,2.44E-12,,
,0.233004,2.01E-12,,
,0.235004,1.48E-12,,
,0.237004,9.41E-13,,
,0.239004,7.26E-13,,
,0.241004,6.19E-13,,
,0.243004,5.11E-13,,
,0.245004,4.04E-13,,
,0.247004,6.19E-13,,
,0.249004,5.11E-13,,
,0.251004,2.97E-13,,
,0.253004,-5.62E-13,,
,0.255004,-1.21E-12,,
,0.257004,-1.42E-12,,
,0.259004,-1.31E-12,,
,0.261004,-1.10E-12,,
,0.263004,-9.92E-13,,
,0.265004,-1.10E-12,,
,0.267004,-1.31E-12,,
,0.269004,-1.74E-12,,
,0.271004,-2.07E-12,,
,0.273004,-2.49E-12,,
,0.275004,-2.82E-12,,
,0.277004,-2.82E-12,,
,0.279004,-2.71E-12,,
,0.281004,-2.60E-12,,
,0.283004,-3.14E-12,,
,0.285004,-3.78E-12,,
,0.287004,-4.32E-12,,
,0.289004,-4.75E-12,,
,0.291004,-4.75E-12,,
,0.293004,-4.86E-12,,
,0.295004,-4.43E-12,,
,0.297004,-4.21E-12,,
,0.299004,-4.00E-12,,
,0.301004,-4.10E-12,,
,0.303004,-4.86E-12,,
,0.305004,-5.61E-12,,
,0.307004,-6.36E-12,,
,0.309004,-6.57E-12,,
,0.311004,-6.36E-12,,
,0.313004,-6.04E-12,,
,0.315004,-5.61E-12,,
,0.317004,-5.93E-12,,
,0.319004,-6.68E-12,,
,0.321004,-7.43E-12,,
,0.323004,-7.97E-12,,
,0.325004,-8.08E-12,,
,0.327004,-8.18E-12,,
,0.329004,-7.86E-12,,
,0.331004,-7.65E-12,,
,0.333004,-7.65E-12,,
,0.335004,-7.75E-12,,
,0.337004,-8.18E-12,,
,0.339004,-8.51E-12,,
,0.341004,-9.15E-12,,
,0.343004,-9.26E-12,,
,0.345004,-9.04E-12,,
,0.347004,-8.72E-12,,
,0.349004,-8.72E-12,,
,0.351004,-9.15E-12,,
,0.353004,-9.58E-12,,
,0.355004,-1.00E-11,,
,0.357004,-1.02E-11,,
,0.359004,-1.03E-11,,
,0.361004,-1.00E-11,,
,0.363004,-9.79E-12,,
,0.365004,-9.58E-12,,
,0.367004,-9.69E-12,,
,0.369004,-1.01E-11,,
,0.371004,-1.08E-11,,
,0.373004,-1.14E-11,,
,0.375004,-1.16E-11,,
,0.377004,-1.16E-11,,
,0.379004,-1.15E-11,,
,0.381004,-1.13E-11,,
,0.383004,-1.14E-11,,
,0.385004,-1.18E-11,,
,0.387004,-1.25E-11,,
,0.389004,-1.27E-11,,
,0.391004,-1.27E-11,,
,0.393004,-1.25E-11,,
,0.395004,-1.24E-11,,
,0.397004,-1.20E-11,,
,0.399004,-1.18E-11,,
,0.401004,-1.22E-11,,
,0.403004,-1.28E-11,,
,0.405004,-1.36E-11,,
,0.407004,-1.41E-11,,
,0.409004,-1.43E-11,,
,0.411004,-1.44E-11,,
,0.413004,-1.42E-11,,
,0.415004,-1.42E-11,,
,0.417004,-1.43E-11,,
,0.419004,-1.49E-11,,
,0.421004,-1.56E-11,,
,0.423004,-1.60E-11,,
,0.425004,-1.61E-11,,
,0.427004,-1.59E-11,,
,0.429004,-1.57E-11,,
,0.431004,-1.54E-11,,
,0.433004,-1.54E-11,,
,0.435004,-1.58E-11,,
,0.437004,-1.63E-11,,
,0.439004,-1.69E-11,,
,0.441004,-1.72E-11,,
,0.443004,-1.72E-11,,
,0.445004,-1.69E-11,,
,0.447004,-1.66E-11,,
,0.449004,-1.66E-11,,
,0.451004,-1.67E-11,,
,0.453004,-1.70E-11,,
,0.455004,-1.70E-11,,
,0.457004,-1.71E-11,,
,0.459004,-1.70E-11,,
,0.461004,-1.68E-11,,
,0.463004,-1.65E-11,,
,0.465004,-1.62E-11,,
,0.467004,-1.62E-11,,
,0.469004,-1.65E-11,,
,0.471004,-1.68E-11,,
,0.473004,-1.72E-11,,
,0.475004,-1.71E-11,,
,0.477004,-1.69E-11,,
,0.479004,-1.65E-11,,
,0.481004,-1.62E-11,,
,0.483004,-1.59E-11,,
,0.485004,-1.60E-11,,
,0.487004,-1.65E-11,,
,0.489004,-1.69E-11,,
,0.491004,-1.68E-11,,
,0.493004,-1.66E-11,,
,0.495004,-1.60E-11,,
,0.497004,-1.57E-11,,
,0.499004,-1.53E-11,,
,0.501004,-1.54E-11,,
,0.503004,-1.56E-11,,
,0.505004,-1.61E-11,,
,0.507004,-1.62E-11,,
,0.509004,-1.61E-11,,
,0.511004,-1.55E-11,,
,0.513004,-1.49E-11,,
,0.515004,-1.46E-11,,
,0.517004,-1.47E-11,,
,0.519004,-1.51E-11,,
,0.521004,-1.54E-11,,
,0.523004,-1.56E-11,,
,0.525004,-1.54E-11,,
,0.527004,-1.48E-11,,
,0.529004,-1.41E-11,,
,0.531004,-1.37E-11,,
,0.533004,-1.34E-11,,
,0.535004,-1.38E-11,,
,0.537004,-1.38E-11,,
,0.539004,-1.41E-11,,
,0.541004,-1.40E-11,,
,0.543004,-1.39E-11,,
,0.545004,-1.33E-11,,
,0.547004,-1.27E-11,,
,0.549004,-1.23E-11,,
,0.551004,-1.25E-11,,
,0.553004,-1.29E-11,,
,0.555004,-1.32E-11,,
,0.557004,-1.29E-11,,
,0.559004,-1.24E-11,,
,0.561004,-1.16E-11,,
,0.563004,-1.09E-11,,
,0.565004,-1.04E-11,,
,0.567004,-1.04E-11,,
,0.569004,-1.08E-11,,
,0.571004,-1.09E-11,,
,0.573004,-1.09E-11,,
,0.575004,-1.04E-11,,
,0.577004,-1.01E-11,,
,0.579004,-9.47E-12,,
,0.581004,-9.04E-12,,
,0.583004,-8.72E-12,,
,0.585004,-8.72E-12,,
,0.587004,-8.94E-12,,
,0.589004,-9.04E-12,,
,0.591004,-9.04E-12,,
,0.593004,-8.61E-12,,
,0.595004,-7.86E-12,,
,0.597004,-7.11E-12,,
,0.599004,-6.57E-12,,
,0.601004,-6.47E-12,,
,0.603004,-6.79E-12,,
,0.605004,-6.90E-12,,
,0.607004,-6.90E-12,,
,0.609004,-6.36E-12,,
,0.611004,-5.93E-12,,
,0.613004,-5.29E-12,,
,0.615004,-4.86E-12,,
,0.617004,-4.64E-12,,
,0.619004,-4.86E-12,,
,0.621004,-4.96E-12,,
,0.623004,-4.96E-12,,
,0.625004,-4.53E-12,,
,0.627004,-4.00E-12,,
,0.629004,-3.35E-12,,
,0.631004,-2.82E-12,,
,0.633004,-2.60E-12,,
,0.635004,-2.82E-12,,
,0.637004,-3.25E-12,,
,0.639004,-3.57E-12,,
,0.641004,-3.46E-12,,
,0.643004,-3.03E-12,,
,0.645004,-2.39E-12,,
,0.647004,-1.85E-12,,
,0.649004,-1.53E-12,,
,0.651004,-1.42E-12,,
,0.653004,-1.64E-12,,
,0.655004,-1.85E-12,,
,0.657004,-1.85E-12,,
,0.659004,-1.42E-12,,
,0.661004,-7.77E-13,,
,0.663004,-2.40E-13,,
,0.665004,1.89E-13,,
,0.667004,1.89E-13,,
,0.669004,-1.33E-13,,
,0.671004,-5.62E-13,,
,0.673004,-6.69E-13,,
,0.675004,-5.62E-13,,
,0.677004,-2.40E-13,,
,0.679004,1.89E-13,,
,0.681004,6.19E-13,,
,0.683004,7.26E-13,,
,0.685004,5.11E-13,,
,0.687004,-2.53E-14,,
,0.689004,-4.55E-13,,
,0.691004,-6.69E-13,,
,0.693004,-3.47E-13,,
,0.695004,8.20E-14,,
,0.697004,6.19E-13,,
,0.699004,7.26E-13,,
,0.701004,6.19E-13,,
,0.703004,8.20E-14,,
,0.705004,-2.40E-13,,
,0.707004,-4.55E-13,,
,0.709004,-2.40E-13,,
,0.711004,8.20E-14,,
,0.713004,5.11E-13,,
,0.715004,8.34E-13,,
,0.717004,6.19E-13,,
,0.719004,8.20E-14,,
,0.721004,-5.62E-13,,
,0.723004,-7.77E-13,,
,0.725004,-5.62E-13,,
,0.727004,-3.47E-13,,
,0.729004,-2.53E-14,,
,0.731004,1.89E-13,,
,0.733004,-2.53E-14,,
,0.735004,-2.40E-13,,
,0.737004,-8.84E-13,,
,0.739004,-1.21E-12,,
,0.741004,-1.74E-12,,
,0.743004,-1.64E-12,,
,0.745004,-1.42E-12,,
,0.747004,-1.10E-12,,
,0.749004,-1.10E-12,,
,0.751004,-1.42E-12,,
,0.753004,-1.96E-12,,
,0.755004,-2.60E-12,,
,0.757004,-2.60E-12,,
,0.759004,-2.49E-12,,
,0.761004,-2.07E-12,,
,0.763004,-1.85E-12,,
,0.765004,-1.64E-12,,
,0.767004,-1.85E-12,,
,0.769004,-2.39E-12,,
,0.771004,-3.03E-12,,
,0.773004,-3.35E-12,,
,0.775004,-3.46E-12,,
,0.777004,-3.14E-12,,
,0.779004,-2.92E-12,,
,0.781004,-2.60E-12,,
,0.783004,-2.92E-12,,
,0.785004,-3.25E-12,,
,0.787004,-3.78E-12,,
,0.789004,-3.89E-12,,
,0.791004,-4.00E-12,,
,0.793004,-3.89E-12,,
,0.795004,-3.78E-12,,
,0.797004,-3.46E-12,,
,0.799004,-3.25E-12,,
,0.801004,-3.14E-12,,
,0.803004,-3.46E-12,,
,0.805004,-3.78E-12,,
,0.807004,-4.00E-12,,
,0.809004,-4.00E-12,,
,0.811004,-3.89E-12,,
,0.813004,-3.46E-12,,
,0.815004,-3.03E-12,,
,0.817004,-2.92E-12,,
,0.819004,-3.46E-12,,
,0.821004,-4.32E-12,,
,0.823004,-4.75E-12,,
,0.825004,-4.64E-12,,
,0.827004,-4.10E-12,,
,0.829004,-3.78E-12,,
,0.831004,-3.78E-12,,
,0.833004,-4.00E-12,,
,0.835004,-4.43E-12,,
,0.837004,-4.86E-12,,
,0.839004,-5.18E-12,,
,0.841004,-5.07E-12,,
,0.843004,-4.75E-12,,
,0.845004,-4.43E-12,,
,0.847004,-4.21E-12,,
,0.849004,-4.32E-12,,
,0.851004,-4.64E-12,,
,0.853004,-4.96E-12,,
,0.855004,-5.39E-12,,
,0.857004,-5.39E-12,,
,0.859004,-5.50E-12,,
,0.861004,-5.07E-12,,
,0.863004,-4.86E-12,,
,0.865004,-4.75E-12,,
,0.867004,-5.07E-12,,
,0.869004,-5.39E-12,,
,0.871004,-5.93E-12,,
,0.873004,-5.93E-12,,
,0.875004,-5.82E-12,,
,0.877004,-5.39E-12,,
,0.879004,-5.07E-12,,
,0.881004,-5.07E-12,,
,0.883004,-5.18E-12,,
,0.885004,-5.61E-12,,
,0.887004,-6.04E-12,,
,0.889004,-6.57E-12,,
,0.891004,-6.57E-12,,
,0.893004,-6.36E-12,,
,0.895004,-5.72E-12,,
,0.897004,-5.61E-12,,
,0.899004,-5.50E-12,,
,0.901004,-6.04E-12,,
,0.903004,-6.47E-12,,
,0.905004,-7.11E-12,,
,0.907004,-7.22E-12,,
,0.909004,-7.22E-12,,
,0.911004,-6.68E-12,,
,0.913004,-6.25E-12,,
,0.915004,-5.93E-12,,
,0.917004,-6.14E-12,,
,0.919004,-6.68E-12,,
,0.921004,-7.11E-12,,
,0.923004,-7.43E-12,,
,0.925004,-7.22E-12,,
,0.927004,-7.11E-12,,
,0.929004,-6.79E-12,,
,0.931004,-6.36E-12,,
,0.933004,-6.14E-12,,
,0.935004,-6.25E-12,,
,0.937004,-6.79E-12,,
,0.939004,-6.90E-12,,
,0.941004,-6.90E-12,,
,0.943004,-6.57E-12,,
,0.945004,-6.25E-12,,
,0.947004,-5.82E-12,,
,0.949004,-5.72E-12,,
,0.951004,-6.04E-12,,
,0.953004,-6.47E-12,,
,0.955004,-6.68E-12,,
,0.957004,-6.68E-12,,
,0.959004,-6.36E-12,,
,0.961004,-6.04E-12,,
,0.963004,-5.39E-12,,
,0.965004,-4.96E-12,,
,0.967004,-4.64E-12,,
,0.969004,-4.64E-12,,
,0.971004,-4.86E-12,,
,0.973004,-4.96E-12,,
,0.975004,-5.07E-12,,
,0.977004,-4.75E-12,,
,0.979004,-4.21E-12,,
,0.981004,-3.89E-12,,
,0.983004,-3.78E-12,,
,0.985004,-4.21E-12,,
,0.987004,-4.43E-12,,
,0.989004,-4.64E-12,,
,0.991004,-4.32E-12,,
,0.993004,-4.10E-12,,
,0.995004,-3.68E-12,,
,0.997004,-3.35E-12,,
,0.999004,-3.14E-12,,
,1.001004,-3.35E-12,,
,1.003004,-3.89E-12,,
,1.005004,-4.43E-12,,
,1.007004,-4.75E-12,,
,1.009004,-4.64E-12,,
,1.011004,-4.00E-12,,
,1.013004,-3.25E-12,,
,1.015004,-2.92E-12,,
,1.017004,-3.25E-12,,
,1.019004,-3.68E-12,,
,1.021004,-4.00E-12,,
,1.023004,-4.21E-12,,
,1.025004,-4.32E-12,,
,1.027004,-4.00E-12,,
,1.029004,-3.46E-12,,
,1.031004,-3.03E-12,,
,1.033004,-3.03E-12,,
,1.035004,-3.03E-12,,
,1.037004,-3.14E-12,,
,1.039004,-3.14E-12,,
,1.041004,-3.03E-12,,
,1.043004,-2.39E-12,,
,1.045004,-1.85E-12,,
,1.047004,-9.92E-13,,
,1.049004,-6.69E-13,,
,1.051004,-2.40E-13,,
,1.053004,-4.55E-13,,
,1.055004,-4.55E-13,,
,1.057004,-2.40E-13,,
,1.059004,6.19E-13,,
,1.061004,1.48E-12,,
,1.063004,2.23E-12,,
,1.065004,2.77E-12,,
,1.067004,3.30E-12,,
,1.069004,3.84E-12,,
,1.071004,3.95E-12,,
,1.073004,4.38E-12,,
,1.075004,4.81E-12,,
,1.077004,5.88E-12,,
,1.079004,7.17E-12,,
,1.081004,8.46E-12,,
,1.083004,9.42E-12,,
,1.085004,9.74E-12,,
,1.087004,9.96E-12,,
,1.089004,1.03E-11,,
,1.091004,1.10E-11,,
,1.093004,1.21E-11,,
,1.095004,1.35E-11,,
,1.097004,1.48E-11,,
,1.099004,1.58E-11,,
,1.101004,1.64E-11,,
,1.103004,1.69E-11,,
,1.105004,1.74E-11,,
,1.107004,1.83E-11,,
,1.109004,1.94E-11,,
,1.111004,2.10E-11,,
,1.113004,2.22E-11,,
,1.115004,2.35E-11,,
,1.117004,2.43E-11,,
,1.119004,2.49E-11,,
,1.121004,2.53E-11,,
,1.123004,2.58E-11,,
,1.125004,2.68E-11,,
,1.127004,2.79E-11,,
,1.129004,2.93E-11,,
,1.131004,3.05E-11,,
,1.133004,3.14E-11,,
,1.135004,3.20E-11,,
,1.137004,3.24E-11,,
,1.139004,3.27E-11,,
,1.141004,3.34E-11,,
,1.143004,3.44E-11,,
,1.145004,3.56E-11,,
,1.147004,3.66E-11,,
,1.149004,3.70E-11,,
,1.151004,3.72E-11,,
,1.153004,3.72E-11,,
,1.155004,3.72E-11,,
,1.157004,3.78E-11,,
,1.159004,3.83E-11,,
,1.161004,3.94E-11,,
,1.163004,4.01E-11,,
,1.165004,4.08E-11,,
,1.167004,4.08E-11,,
,1.169004,4.07E-11,,
,1.171004,4.08E-11,,
,1.173004,4.08E-11,,
,1.175004,4.10E-11,,
,1.177004,4.12E-11,,
,1.179004,4.18E-11,,
,1.181004,4.21E-11,,
,1.183004,4.17E-11,,
,1.185004,4.11E-11,,
,1.187004,4.06E-11,,
,1.189004,4.01E-11,,
,1.191004,3.99E-11,,
,1.193004,3.98E-11,,
,1.195004,4.01E-11,,
,1.197004,4.04E-11,,
,1.199004,4.02E-11,,
,1.201004,3.96E-11,,
,1.203004,3.88E-11,,
,1.205004,3.83E-11,,
,1.207004,3.78E-11,,
,1.209004,3.74E-11,,
,1.211004,3.73E-11,,
,1.213004,3.74E-11,,
,1.215004,3.71E-11,,
,1.217004,3.66E-11,,
,1.219004,3.59E-11,,
,1.221004,3.52E-11,,
,1.223004,3.47E-11,,
,1.225004,3.44E-11,,
,1.227004,3.45E-11,,
,1.229004,3.47E-11,,
,1.231004,3.47E-11,,
,1.233004,3.44E-11,,
,1.235004,3.40E-11,,
,1.237004,3.36E-11,,
,1.239004,3.33E-11,,
,1.241004,3.33E-11,,
,1.243004,3.34E-11,,
,1.245004,3.36E-11,,
,1.247004,3.39E-11,,
,1.249004,3.38E-11,,
,1.251004,3.36E-11,,
,1.253004,3.30E-11,,
,1.255004,3.28E-11,,
,1.257004,3.29E-11,,
,1.259004,3.34E-11,,
,1.261004,3.40E-11,,
,1.263004,3.47E-11,,
,1.265004,3.52E-11,,
,1.267004,3.53E-11,,
,1.269004,3.51E-11,,
,1.271004,3.50E-11,,
,1.273004,3.50E-11,,
,1.275004,3.55E-11,,
,1.277004,3.60E-11,,
,1.279004,3.67E-11,,
,1.281004,3.71E-11,,
,1.283004,3.73E-11,,
,1.285004,3.73E-11,,
,1.287004,3.73E-11,,
,1.289004,3.74E-11,,
,1.291004,3.81E-11,,
,1.293004,3.86E-11,,
,1.295004,3.94E-11,,
,1.297004,3.98E-11,,
,1.299004,4.03E-11,,
,1.301004,4.04E-11,,
,1.303004,4.06E-11,,
,1.305004,4.04E-11,,
,1.307004,4.07E-11,,
,1.309004,4.10E-11,,
,1.311004,4.15E-11,,
,1.313004,4.21E-11,,
,1.315004,4.25E-11,,
,1.317004,4.27E-11,,
,1.319004,4.25E-11,,
,1.321004,4.23E-11,,
,1.323004,4.21E-11,,
,1.325004,4.23E-11,,
,1.327004,4.26E-11,,
,1.329004,4.32E-11,,
,1.331004,4.38E-11,,
,1.333004,4.38E-11,,
,1.335004,4.36E-11,,
,1.337004,4.33E-11,,
,1.339004,4.36E-11,,
,1.341004,4.37E-11,,
,1.343004,4.41E-11,,
,1.345004,4.46E-11,,
,1.347004,4.51E-11,,
,1.349004,4.51E-11,,
,1.351004,4.48E-11,,
,1.353004,4.46E-11,,
,1.355004,4.43E-11,,
,1.357004,4.44E-11,,
,1.359004,4.46E-11,,
,1.361004,4.54E-11,,
,1.363004,4.58E-11,,
,1.365004,4.64E-11,,
,1.367004,4.65E-11,,
,1.369004,4.64E-11,,
,1.371004,4.64E-11,,
,1.373004,4.62E-11,,
,1.375004,4.66E-11,,
,1.377004,4.71E-11,,
,1.379004,4.80E-11,,
,1.381004,4.86E-11,,
,1.383004,4.89E-11,,
,1.385004,4.86E-11,,
,1.387004,4.84E-11,,
,1.389004,4.84E-11,,
,1.391004,4.89E-11,,
,1.393004,4.96E-11,,
,1.395004,5.02E-11,,
,1.397004,5.11E-11,,
,1.399004,5.16E-11,,
,1.401004,5.18E-11,,
,1.403004,5.18E-11,,
,1.405004,5.20E-11,,
,1.407004,5.23E-11,,
,1.409004,5.30E-11,,
,1.411004,5.40E-11,,
,1.413004,5.50E-11,,
,1.415004,5.57E-11,,
,1.417004,5.60E-11,,
,1.419004,5.61E-11,,
,1.421004,5.60E-11,,
,1.423004,5.61E-11,,
,1.425004,5.67E-11,,
,1.427004,5.75E-11,,
,1.429004,5.87E-11,,
,1.431004,5.96E-11,,
,1.433004,6.03E-11,,
,1.435004,6.05E-11,,
,1.437004,6.10E-11,,
,1.439004,6.13E-11,,
,1.441004,6.18E-11,,
,1.443004,6.26E-11,,
,1.445004,6.33E-11,,
,1.447004,6.44E-11,,
,1.449004,6.48E-11,,
,1.451004,6.50E-11,,
,1.453004,6.49E-11,,
,1.455004,6.51E-11,,
,1.457004,6.55E-11,,
,1.459004,6.59E-11,,
,1.461004,6.64E-11,,
,1.463004,6.72E-11,,
,1.465004,6.75E-11,,
,1.467004,6.75E-11,,
,1.469004,6.71E-11,,
,1.471004,6.69E-11,,
,1.473004,6.68E-11,,
,1.475004,6.70E-11,,
,1.477004,6.72E-11,,
,1.479004,6.74E-11,,
,1.481004,6.74E-11,,
,1.483004,6.72E-11,,
,1.485004,6.65E-11,,
,1.487004,6.58E-11,,
,1.489004,6.48E-11,,
,1.491004,6.43E-11,,
,1.493004,6.39E-11,,
,1.495004,6.36E-11,,
,1.497004,6.35E-11,,
,1.499004,6.31E-11,,
,1.501004,6.21E-11,,
,1.503004,6.05E-11,,
,1.505004,5.94E-11,,
,1.507004,5.86E-11,,
,1.509004,5.79E-11,,
,1.511004,5.71E-11,,
,1.513004,5.64E-11,,
,1.515004,5.57E-11,,
,1.517004,5.45E-11,,
,1.519004,5.31E-11,,
,1.521004,5.16E-11,,
,1.523004,5.05E-11,,
,1.525004,4.96E-11,,
,1.527004,4.89E-11,,
,1.529004,4.81E-11,,
,1.531004,4.72E-11,,
,1.533004,4.61E-11,,
,1.535004,4.48E-11,,
,1.537004,4.35E-11,,
,1.539004,4.21E-11,,
,1.541004,4.08E-11,,
,1.543004,4.00E-11,,
,1.545004,3.94E-11,,
,1.547004,3.87E-11,,
,1.549004,3.74E-11,,
,1.551004,3.59E-11,,
,1.553004,3.43E-11,,
,1.555004,3.27E-11,,
,1.557004,3.13E-11,,
,1.559004,3.01E-11,,
,1.561004,2.92E-11,,
,1.563004,2.82E-11,,
,1.565004,2.75E-11,,
,1.567004,2.63E-11,,
,1.569004,2.47E-11,,
,1.571004,2.27E-11,,
,1.573004,2.11E-11,,
,1.575004,2.01E-11,,
,1.577004,1.92E-11,,
,1.579004,1.82E-11,,
,1.581004,1.70E-11,,
,1.583004,1.55E-11,,
,1.585004,1.37E-11,,
,1.587004,1.20E-11,,
,1.589004,1.03E-11,,
,1.591004,9.31E-12,,
,1.593004,8.24E-12,,
,1.595004,7.38E-12,,
,1.597004,6.09E-12,,
,1.599004,4.70E-12,,
,1.601004,3.09E-12,,
,1.603004,1.48E-12,,
,1.605004,-1.33E-13,,
,1.607004,-1.64E-12,,
,1.609004,-2.92E-12,,
,1.611004,-4.00E-12,,
,1.613004,-5.18E-12,,
,1.615004,-6.36E-12,,
,1.617004,-7.86E-12,,
,1.619004,-9.47E-12,,
,1.621004,-1.12E-11,,
,1.623004,-1.26E-11,,
,1.625004,-1.38E-11,,
,1.627004,-1.47E-11,,
,1.629004,-1.56E-11,,
,1.631004,-1.63E-11,,
,1.633004,-1.75E-11,,
,1.635004,-1.89E-11,,
,1.637004,-2.05E-11,,
,1.639004,-2.16E-11,,
,1.641004,-2.26E-11,,
,1.643004,-2.31E-11,,
,1.645004,-2.38E-11,,
,1.647004,-2.41E-11,,
,1.649004,-2.46E-11,,
,1.651004,-2.55E-11,,
,1.653004,-2.66E-11,,
,1.655004,-2.76E-11,,
,1.657004,-2.83E-11,,
,1.659004,-2.84E-11,,
,1.661004,-2.86E-11,,
,1.663004,-2.84E-11,,
,1.665004,-2.85E-11,,
,1.667004,-2.85E-11,,
,1.669004,-2.90E-11,,
,1.671004,-2.95E-11,,
,1.673004,-2.98E-11,,
,1.675004,-2.94E-11,,
,1.677004,-2.88E-11,,
,1.679004,-2.82E-11,,
,1.681004,-2.76E-11,,
,1.683004,-2.74E-11,,
,1.685004,-2.73E-11,,
,1.687004,-2.72E-11,,
,1.689004,-2.66E-11,,
,1.691004,-2.59E-11,,
,1.693004,-2.49E-11,,
,1.695004,-2.38E-11,,
,1.697004,-2.28E-11,,
,1.699004,-2.17E-11,,
,1.701004,-2.11E-11,,
,1.703004,-2.04E-11,,
,1.705004,-1.99E-11,,
,1.707004,-1.89E-11,,
,1.709004,-1.77E-11,,
,1.711004,-1.62E-11,,
,1.713004,-1.49E-11,,
,1.715004,-1.38E-11,,
,1.717004,-1.28E-11,,
,1.719004,-1.20E-11,,
,1.721004,-1.12E-11,,
,1.723004,-1.04E-11,,
,1.725004,-9.15E-12,,
,1.727004,-7.86E-12,,
,1.729004,-6.04E-12,,
,1.731004,-4.32E-12,,
,1.733004,-3.14E-12,,
,1.735004,-2.60E-12,,
,1.737004,-2.28E-12,,
,1.739004,-1.64E-12,,
,1.741004,-7.77E-13,,
,1.743004,4.04E-13,,
,1.745004,1.69E-12,,
,1.747004,2.77E-12,,
,1.749004,3.41E-12,,
,1.751004,3.84E-12,,
,1.753004,4.16E-12,,
,1.755004,4.59E-12,,
,1.757004,5.13E-12,,
,1.759004,5.88E-12,,
,1.761004,6.63E-12,,
,1.763004,7.60E-12,,
,1.765004,8.24E-12,,
,1.767004,8.67E-12,,
,1.769004,8.67E-12,,
,1.771004,8.78E-12,,
,1.773004,8.89E-12,,
,1.775004,8.99E-12,,
,1.777004,9.42E-12,,
,1.779004,9.85E-12,,
,1.781004,1.01E-11,,
,1.783004,9.85E-12,,
,1.785004,9.53E-12,,
,1.787004,9.10E-12,,
,1.789004,8.78E-12,,
,1.791004,8.56E-12,,
,1.793004,9.10E-12,,
,1.795004,9.53E-12,,
,1.797004,9.74E-12,,
,1.799004,9.53E-12,,
,1.801004,9.10E-12,,
,1.803004,8.46E-12,,
,1.805004,8.03E-12,,
,1.807004,7.60E-12,,
,1.809004,7.60E-12,,
,1.811004,7.60E-12,,
,1.813004,7.60E-12,,
,1.815004,7.49E-12,,
,1.817004,7.06E-12,,
,1.819004,6.31E-12,,
,1.821004,5.56E-12,,
,1.823004,4.91E-12,,
,1.825004,4.70E-12,,
,1.827004,4.59E-12,,
,1.829004,4.48E-12,,
,1.831004,4.59E-12,,
,1.833004,4.27E-12,,
,1.835004,3.73E-12,,
,1.837004,2.87E-12,,
,1.839004,2.12E-12,,
,1.841004,1.80E-12,,
,1.843004,1.69E-12,,
,1.845004,1.80E-12,,
,1.847004,1.59E-12,,
,1.849004,1.26E-12,,
,1.851004,7.26E-13,,
,1.853004,1.89E-13,,
,1.855004,-3.47E-13,,
,1.857004,-6.69E-13,,
,1.859004,-5.62E-13,,
,1.861004,-3.47E-13,,
,1.863004,-3.47E-13,,
,1.865004,-6.69E-13,,
,1.867004,-1.21E-12,,
,1.869004,-1.42E-12,,
,1.871004,-1.53E-12,,
,1.873004,-1.42E-12,,
,1.875004,-1.31E-12,,
,1.877004,-9.92E-13,,
,1.879004,-5.62E-13,,
,1.881004,-2.40E-13,,
,1.883004,-1.33E-13,,
,1.885004,-2.40E-13,,
,1.887004,-1.33E-13,,
,1.889004,-2.53E-14,,
,1.891004,2.97E-13,,
,1.893004,9.41E-13,,
,1.895004,1.91E-12,,
,1.897004,2.87E-12,,
,1.899004,3.30E-12,,
,1.901004,3.73E-12,,
,1.903004,3.95E-12,,
,1.905004,4.48E-12,,
,1.907004,5.13E-12,,
,1.909004,6.20E-12,,
,1.911004,7.38E-12,,
,1.913004,8.35E-12,,
,1.915004,9.31E-12,,
,1.917004,9.74E-12,,
,1.919004,9.96E-12,,
,1.921004,9.96E-12,,
,1.923004,1.06E-11,,
,1.925004,1.12E-11,,
,1.927004,1.21E-11,,
,1.929004,1.29E-11,,
,1.931004,1.39E-11,,
,1.933004,1.49E-11,,
,1.935004,1.52E-11,,
,1.937004,1.54E-11,,
,1.939004,1.54E-11,,
,1.941004,1.61E-11,,
,1.943004,1.67E-11,,
,1.945004,1.77E-11,,
,1.947004,1.87E-11,,
,1.949004,1.93E-11,,
,1.951004,1.96E-11,,
,1.953004,1.95E-11,,
,1.955004,1.96E-11,,
,1.957004,2.02E-11,,
,1.959004,2.08E-11,,
,1.961004,2.17E-11,,
,1.963004,2.23E-11,,
,1.965004,2.28E-11,,
,1.967004,2.29E-11,,
,1.969004,2.32E-11,,
,1.971004,2.33E-11,,
,1.973004,2.36E-11,,
,1.975004,2.39E-11,,
,1.977004,2.47E-11,,
,1.979004,2.54E-11,,
,1.981004,2.60E-11,,
,1.983004,2.60E-11,,
,1.985004,2.58E-11,,
,1.987004,2.55E-11,,
,1.989004,2.52E-11,,
,1.991004,2.49E-11,,
,1.993004,2.47E-11,,
,1.995004,2.51E-11,,
,1.997004,2.56E-11,,
,1.999004,2.60E-11,,
,2.001004,2.57E-11,,
,2.003004,2.52E-11,,
,2.005004,2.49E-11,,
,2.007004,2.47E-11,,
,2.009004,2.46E-11,,
,2.011004,2.49E-11,,
,2.013004,2.50E-11,,
,2.015004,2.51E-11,,
,2.017004,2.45E-11,,
,2.019004,2.39E-11,,
,2.021004,2.32E-11,,
,2.023004,2.27E-11,,
,2.025004,2.26E-11,,
,2.027004,2.28E-11,,
,2.029004,2.29E-11,,
,2.031004,2.26E-11,,
,2.033004,2.24E-11,,
,2.035004,2.21E-11,,
,2.037004,2.18E-11,,
,2.039004,2.13E-11,,
,2.041004,2.09E-11,,
,2.043004,2.10E-11,,
,2.045004,2.10E-11,,
,2.047004,2.11E-11,,
,2.049004,2.08E-11,,
,2.051004,2.01E-11,,
,2.053004,1.93E-11,,
,2.055004,1.84E-11,,
,2.057004,1.81E-11,,
,2.059004,1.80E-11,,
,2.061004,1.79E-11,,
,2.063004,1.79E-11,,
,2.065004,1.76E-11,,
,2.067004,1.73E-11,,
,2.069004,1.66E-11,,
,2.071004,1.60E-11,,
,2.073004,1.55E-11,,
,2.075004,1.51E-11,,
,2.077004,1.48E-11,,
,2.079004,1.45E-11,,
,2.081004,1.41E-11,,
,2.083004,1.38E-11,,
,2.085004,1.29E-11,,
,2.087004,1.20E-11,,
,2.089004,1.14E-11,,
,2.091004,1.10E-11,,
,2.093004,1.08E-11,,
,2.095004,1.05E-11,,
,2.097004,1.02E-11,,
,2.099004,9.74E-12,,
,2.101004,8.99E-12,,
,2.103004,8.46E-12,,
,2.105004,7.70E-12,,
,2.107004,7.27E-12,,
,2.109004,6.74E-12,,
,2.111004,6.63E-12,,
,2.113004,6.31E-12,,
,2.115004,5.88E-12,,
,2.117004,5.02E-12,,
,2.119004,4.05E-12,,
,2.121004,3.09E-12,,
,2.123004,2.34E-12,,
,2.125004,1.80E-12,,
,2.127004,1.69E-12,,
,2.129004,1.48E-12,,
,2.131004,1.16E-12,,
,2.133004,6.19E-13,,
,2.135004,8.20E-14,,
,2.137004,-4.55E-13,,
,2.139004,-1.21E-12,,
,2.141004,-1.64E-12,,
,2.143004,-2.07E-12,,
,2.145004,-2.07E-12,,
,2.147004,-2.28E-12,,
,2.149004,-2.71E-12,,
,2.151004,-3.46E-12,,
,2.153004,-4.32E-12,,
,2.155004,-4.96E-12,,
,2.157004,-5.61E-12,,
,2.159004,-5.61E-12,,
,2.161004,-5.50E-12,,
,2.163004,-5.07E-12,,
,2.165004,-5.29E-12,,
,2.167004,-5.50E-12,,
,2.169004,-5.93E-12,,
,2.171004,-6.36E-12,,
,2.173004,-6.57E-12,,
,2.175004,-6.57E-12,,
,2.177004,-6.25E-12,,
,2.179004,-6.14E-12,,
,2.181004,-5.82E-12,,
,2.183004,-5.72E-12,,
,2.185004,-5.72E-12,,
,2.187004,-6.25E-12,,
,2.189004,-6.57E-12,,
,2.191004,-6.36E-12,,
,2.193004,-6.04E-12,,
,2.195004,-5.50E-12,,
,2.197004,-4.96E-12,,
,2.199004,-4.53E-12,,
,2.201004,-4.43E-12,,
,2.203004,-4.64E-12,,
,2.205004,-4.43E-12,,
,2.207004,-4.10E-12,,
,2.209004,-3.46E-12,,
,2.211004,-2.71E-12,,
,2.213004,-1.96E-12,,
,2.215004,-1.31E-12,,
,2.217004,-9.92E-13,,
,2.219004,-7.77E-13,,
,2.221004,-5.62E-13,,
,2.223004,-3.47E-13,,
,2.225004,1.89E-13,,
,2.227004,1.05E-12,,
,2.229004,1.91E-12,,
,2.231004,2.55E-12,,
,2.233004,2.98E-12,,
,2.235004,3.41E-12,,
,2.237004,3.84E-12,,
,2.239004,4.16E-12,,
,2.241004,4.81E-12,,
,2.243004,5.66E-12,,
,2.245004,6.20E-12,,
,2.247004,6.74E-12,,
,2.249004,7.17E-12,,
,2.251004,7.60E-12,,
,2.253004,7.70E-12,,
,2.255004,8.03E-12,,
,2.257004,8.78E-12,,
,2.259004,9.64E-12,,
,2.261004,1.04E-11,,
,2.263004,1.09E-11,,
,2.265004,1.15E-11,,
,2.267004,1.17E-11,,
,2.269004,1.21E-11,,
,2.271004,1.25E-11,,
,2.273004,1.33E-11,,
,2.275004,1.39E-11,,
,2.277004,1.47E-11,,
,2.279004,1.54E-11,,
,2.281004,1.63E-11,,
,2.283004,1.69E-11,,
,2.285004,1.70E-11,,
,2.287004,1.74E-11,,
,2.289004,1.78E-11,,
,2.291004,1.85E-11,,
,2.293004,1.92E-11,,
,2.295004,2.02E-11,,
,2.297004,2.10E-11,,
,2.299004,2.17E-11,,
,2.301004,2.20E-11,,
,2.303004,2.25E-11,,
,2.305004,2.31E-11,,
,2.307004,2.37E-11,,
,2.309004,2.45E-11,,
,2.311004,2.52E-11,,
,2.313004,2.60E-11,,
,2.315004,2.65E-11,,
,2.317004,2.68E-11,,
,2.319004,2.68E-11,,
,2.321004,2.71E-11,,
,2.323004,2.77E-11,,
,2.325004,2.85E-11,,
,2.327004,2.92E-11,,
,2.329004,2.99E-11,,
,2.331004,3.06E-11,,
,2.333004,3.10E-11,,
,2.335004,3.13E-11,,
,2.337004,3.14E-11,,
,2.339004,3.19E-11,,
,2.341004,3.23E-11,,
,2.343004,3.31E-11,,
,2.345004,3.39E-11,,
,2.347004,3.43E-11,,
,2.349004,3.45E-11,,
,2.351004,3.45E-11,,
,2.353004,3.47E-11,,
,2.355004,3.47E-11,,
,2.357004,3.49E-11,,
,2.359004,3.53E-11,,
,2.361004,3.58E-11,,
,2.363004,3.63E-11,,
,2.365004,3.67E-11,,
,2.367004,3.69E-11,,
,2.369004,3.68E-11,,
,2.371004,3.66E-11,,
,2.373004,3.64E-11,,
,2.375004,3.67E-11,,
,2.377004,3.71E-11,,
,2.379004,3.75E-11,,
,2.381004,3.75E-11,,
,2.383004,3.72E-11,,
,2.385004,3.67E-11,,
,2.387004,3.62E-11,,
,2.389004,3.58E-11,,
,2.391004,3.58E-11,,
,2.393004,3.59E-11,,
,2.395004,3.59E-11,,
,2.397004,3.58E-11,,
,2.399004,3.56E-11,,
,2.401004,3.51E-11,,
,2.403004,3.44E-11,,
,2.405004,3.40E-11,,
,2.407004,3.38E-11,,
,2.409004,3.35E-11,,
,2.411004,3.30E-11,,
,2.413004,3.26E-11,,
,2.415004,3.23E-11,,
,2.417004,3.19E-11,,
,2.419004,3.10E-11,,
,2.421004,3.02E-11,,
,2.423004,2.94E-11,,
,2.425004,2.90E-11,,
,2.427004,2.86E-11,,
,2.429004,2.83E-11,,
,2.431004,2.80E-11,,
,2.433004,2.72E-11,,
,2.435004,2.64E-11,,
,2.437004,2.54E-11,,
,2.439004,2.46E-11,,
,2.441004,2.41E-11,,
,2.443004,2.38E-11,,
,2.445004,2.36E-11,,
,2.447004,2.32E-11,,
,2.449004,2.26E-11,,
,2.451004,2.18E-11,,
,2.453004,2.08E-11,,
,2.455004,1.98E-11,,
,2.457004,1.93E-11,,
,2.459004,1.88E-11,,
,2.461004,1.84E-11,,
,2.463004,1.80E-11,,
,2.465004,1.76E-11,,
,2.467004,1.69E-11,,
,2.469004,1.61E-11,,
,2.471004,1.52E-11,,
,2.473004,1.45E-11,,
,2.475004,1.41E-11,,
,2.477004,1.39E-11,,
,2.479004,1.36E-11,,
,2.481004,1.30E-11,,
,2.483004,1.20E-11,,
,2.485004,1.10E-11,,
,2.487004,1.01E-11,,
,2.489004,9.42E-12,,
,2.491004,8.78E-12,,
,2.493004,8.24E-12,,
,2.495004,7.92E-12,,
,2.497004,7.70E-12,,
,2.499004,7.17E-12,,
,2.501004,6.31E-12,,
,2.503004,5.13E-12,,
,2.505004,4.27E-12,,
,2.507004,3.41E-12,,
,2.509004,2.87E-12,,
,2.511004,2.34E-12,,
,2.513004,2.01E-12,,
,2.515004,1.26E-12,,
,2.517004,4.04E-13,,
,2.519004,-8.84E-13,,
,2.521004,-1.96E-12,,
,2.523004,-2.92E-12,,
,2.525004,-3.57E-12,,
,2.527004,-4.21E-12,,
,2.529004,-4.75E-12,,
,2.531004,-5.61E-12,,
,2.533004,-6.79E-12,,
,2.535004,-8.83E-12,,
,2.537004,-1.11E-11,,
,2.539004,-1.38E-11,,
,2.541004,-1.68E-11,,
,2.543004,-2.02E-11,,
,2.545004,-2.40E-11,,
,2.547004,-2.82E-11,,
,2.549004,-3.35E-11,,
,2.551004,-3.99E-11,,
,2.553004,-4.67E-11,,
,2.555004,-5.39E-11,,
,2.557004,-6.12E-11,,
,2.559004,-6.84E-11,,
,2.561004,-7.55E-11,,
,2.563004,-8.28E-11,,
,2.565004,-9.04E-11,,
,2.567004,-9.86E-11,,
,2.569004,-1.07E-10,,
,2.571004,-1.15E-10,,
,2.573004,-1.23E-10,,
,2.575004,-1.30E-10,,
,2.577004,-1.38E-10,,
,2.579004,-1.44E-10,,
,2.581004,-1.50E-10,,
,2.583004,-1.57E-10,,
,2.585004,-1.64E-10,,
,2.587004,-1.70E-10,,
,2.589004,-1.76E-10,,
,2.591004,-1.81E-10,,
,2.593004,-1.86E-10,,
,2.595004,-1.90E-10,,
,2.597004,-1.94E-10,,
,2.599004,-1.98E-10,,
,2.601004,-2.02E-10,,
,2.603004,-2.05E-10,,
,2.605004,-2.09E-10,,
,2.607004,-2.11E-10,,
,2.609004,-2.14E-10,,
,2.611004,-2.15E-10,,
,2.613004,-2.16E-10,,
,2.615004,-2.18E-10,,
,2.617004,-2.19E-10,,
,2.619004,-2.21E-10,,
,2.621004,-2.22E-10,,
,2.623004,-2.22E-10,,
,2.625004,-2.23E-10,,
,2.627004,-2.23E-10,,
,2.629004,-2.22E-10,,
,2.631004,-2.21E-10,,
,2.633004,-2.21E-10,,
,2.635004,-2.20E-10,,
,2.637004,-2.20E-10,,
,2.639004,-2.19E-10,,
,2.641004,-2.18E-10,,
,2.643004,-2.16E-10,,
,2.645004,-2.15E-10,,
,2.647004,-2.13E-10,,
,2.649004,-2.11E-10,,
,2.651004,-2.10E-10,,
,2.653004,-2.09E-10,,
,2.655004,-2.07E-10,,
,2.657004,-2.05E-10,,
,2.659004,-2.03E-10,,
,2.661004,-2.00E-10,,
,2.663004,-1.98E-10,,
,2.665004,-1.95E-10,,
,2.667004,-1.93E-10,,
,2.669004,-1.91E-10,,
,2.671004,-1.88E-10,,
,2.673004,-1.86E-10,,
,2.675004,-1.84E-10,,
,2.677004,-1.81E-10,,
,2.679004,-1.77E-10,,
,2.681004,-1.75E-10,,
,2.683004,-1.72E-10,,
,2.685004,-1.71E-10,,
,2.687004,-1.69E-10,,
,2.689004,-1.66E-10,,
,2.691004,-1.64E-10,,
,2.693004,-1.61E-10,,
,2.695004,-1.58E-10,,
,2.697004,-1.55E-10,,
,2.699004,-1.52E-10,,
,2.701004,-1.50E-10,,
,2.703004,-1.48E-10,,
,2.705004,-1.46E-10,,
,2.707004,-1.43E-10,,
,2.709004,-1.40E-10,,
,2.711004,-1.38E-10,,
,2.713004,-1.35E-10,,
,2.715004,-1.33E-10,,
,2.717004,-1.30E-10,,
,2.719004,-1.29E-10,,
,2.721004,-1.27E-10,,
,2.723004,-1.25E-10,,
,2.725004,-1.23E-10,,
,2.727004,-1.20E-10,,
,2.729004,-1.18E-10,,
,2.731004,-1.15E-10,,
,2.733004,-1.14E-10,,
,2.735004,-1.12E-10,,
,2.737004,-1.11E-10,,
,2.739004,-1.09E-10,,
,2.741004,-1.07E-10,,
,2.743004,-1.06E-10,,
,2.745004,-1.04E-10,,
,2.747004,-1.02E-10,,
,2.749004,-1.00E-10,,
,2.751004,-9.93E-11,,
,2.753004,-9.84E-11,,
,2.755004,-9.75E-11,,
,2.757004,-9.61E-11,,
,2.759004,-9.48E-11,,
,2.761004,-9.32E-11,,
,2.763004,-9.16E-11,,
,2.765004,-9.00E-11,,
,2.767004,-8.89E-11,,
,2.769004,-8.82E-11,,
,2.771004,-8.76E-11,,
,2.773004,-8.69E-11,,
,2.775004,-8.58E-11,,
,2.777004,-8.43E-11,,
,2.779004,-8.29E-11,,
,2.781004,-8.17E-11,,
,2.783004,-8.11E-11,,
,2.785004,-8.05E-11,,
,2.787004,-7.99E-11,,
,2.789004,-7.91E-11,,
,2.791004,-7.86E-11,,
,2.793004,-7.76E-11,,
,2.795004,-7.66E-11,,
,2.797004,-7.52E-11,,
,2.799004,-7.43E-11,,
,2.801004,-7.37E-11,,
,2.803004,-7.33E-11,,
,2.805004,-7.30E-11,,
,2.807004,-7.26E-11,,
,2.809004,-7.17E-11,,
,2.811004,-7.06E-11,,
,2.813004,-6.96E-11,,
,2.815004,-6.88E-11,,
,2.817004,-6.85E-11,,
,2.819004,-6.82E-11,,
,2.821004,-6.80E-11,,
,2.823004,-6.78E-11,,
,2.825004,-6.70E-11,,
,2.827004,-6.60E-11,,
,2.829004,-6.47E-11,,
,2.831004,-6.36E-11,,
,2.833004,-6.28E-11,,
,2.835004,-6.25E-11,,
,2.837004,-6.26E-11,,
,2.839004,-6.24E-11,,
,2.841004,-6.21E-11,,
,2.843004,-6.10E-11,,
,2.845004,-5.98E-11,,
,2.847004,-5.87E-11,,
,2.849004,-5.80E-11,,
,2.851004,-5.77E-11,,
,2.853004,-5.74E-11,,
,2.855004,-5.71E-11,,
,2.857004,-5.66E-11,,
,2.859004,-5.60E-11,,
,2.861004,-5.49E-11,,
,2.863004,-5.38E-11,,
,2.865004,-5.28E-11,,
,2.867004,-5.23E-11,,
,2.869004,-5.21E-11,,
,2.871004,-5.18E-11,,
,2.873004,-5.14E-11,,
,2.875004,-5.06E-11,,
,2.877004,-4.95E-11,,
,2.879004,-4.81E-11,,
,2.881004,-4.69E-11,,
,2.883004,-4.62E-11,,
,2.885004,-4.59E-11,,
,2.887004,-4.59E-11,,
,2.889004,-4.55E-11,,
,2.891004,-4.49E-11,,
,2.893004,-4.37E-11,,
,2.895004,-4.24E-11,,
,2.897004,-4.14E-11,,
,2.899004,-4.04E-11,,
,2.901004,-3.99E-11,,
,2.903004,-3.93E-11,,
,2.905004,-3.89E-11,,
,2.907004,-3.80E-11,,
,2.909004,-3.71E-11,,
,2.911004,-3.59E-11,,
,2.913004,-3.48E-11,,
,2.915004,-3.36E-11,,
,2.917004,-3.30E-11,,
,2.919004,-3.29E-11,,
,2.921004,-3.28E-11,,
,2.923004,-3.24E-11,,
,2.925004,-3.14E-11,,
,2.927004,-3.03E-11,,
,2.929004,-2.91E-11,,
,2.931004,-2.82E-11,,
,2.933004,-2.74E-11,,
,2.935004,-2.69E-11,,
,2.937004,-2.65E-11,,
,2.939004,-2.59E-11,,
,2.941004,-2.53E-11,,
,2.943004,-2.43E-11,,
,2.945004,-2.33E-11,,
,2.947004,-2.24E-11,,
,2.949004,-2.15E-11,,
,2.951004,-2.11E-11,,
,2.953004,-2.07E-11,,
,2.955004,-2.07E-11,,
,2.957004,-2.05E-11,,
,2.959004,-1.96E-11,,
,2.961004,-1.86E-11,,
,2.963004,-1.73E-11,,
,2.965004,-1.69E-11,,
,2.967004,-1.62E-11,,
,2.969004,-1.61E-11,,
,2.971004,-1.59E-11,,
,2.973004,-1.57E-11,,
,2.975004,-1.53E-11,,
,2.977004,-1.44E-11,,
,2.979004,-1.34E-11,,
,2.981004,-1.27E-11,,
,2.983004,-1.23E-11,,
,2.985004,-1.24E-11,,
,2.987004,-1.24E-11,,
,2.989004,-1.25E-11,,
,2.991004,-1.22E-11,,
,2.993004,-1.17E-11,,
,2.995004,-1.12E-11,,
,2.997004,-1.05E-11,,
,2.999004,-1.03E-11,,
,3.001004,-1.04E-11,,
,3.003004,-1.10E-11,,
,3.005004,-1.12E-11,,
,3.007004,-1.11E-11,,
,3.009004,-1.07E-11,,
,3.011004,-1.01E-11,,
,3.013004,-9.58E-12,,
,3.015004,-9.37E-12,,
,3.017004,-9.58E-12,,
,3.019004,-1.02E-11,,
,3.021004,-1.09E-11,,
,3.023004,-1.13E-11,,
,3.025004,-1.14E-11,,
,3.027004,-1.11E-11,,
,3.029004,-1.08E-11,,
,3.031004,-1.04E-11,,
,3.033004,-1.05E-11,,
,3.035004,-1.10E-11,,
,3.037004,-1.14E-11,,
,3.039004,-1.22E-11,,
,3.041004,-1.23E-11,,
,3.043004,-1.22E-11,,
,3.045004,-1.17E-11,,
,3.047004,-1.16E-11,,
,3.049004,-1.16E-11,,
,3.051004,-1.20E-11,,
,3.053004,-1.27E-11,,
,3.055004,-1.33E-11,,
,3.057004,-1.34E-11,,
,3.059004,-1.31E-11,,
,3.061004,-1.28E-11,,
,3.063004,-1.26E-11,,
,3.065004,-1.26E-11,,
,3.067004,-1.28E-11,,
,3.069004,-1.30E-11,,
,3.071004,-1.36E-11,,
,3.073004,-1.41E-11,,
,3.075004,-1.44E-11,,
,3.077004,-1.43E-11,,
,3.079004,-1.39E-11,,
,3.081004,-1.34E-11,,
,3.083004,-1.36E-11,,
,3.085004,-1.42E-11,,
,3.087004,-1.49E-11,,
,3.089004,-1.53E-11,,
,3.091004,-1.53E-11,,
,3.093004,-1.53E-11,,
,3.095004,-1.51E-11,,
,3.097004,-1.51E-11,,
,3.099004,-1.52E-11,,
,3.101004,-1.59E-11,,
,3.103004,-1.65E-11,,
,3.105004,-1.68E-11,,
,3.107004,-1.68E-11,,
,3.109004,-1.65E-11,,
,3.111004,-1.63E-11,,
,3.113004,-1.61E-11,,
,3.115004,-1.65E-11,,
,3.117004,-1.69E-11,,
,3.119004,-1.76E-11,,
,3.121004,-1.82E-11,,
,3.123004,-1.86E-11,,
,3.125004,-1.86E-11,,
,3.127004,-1.84E-11,,
,3.129004,-1.82E-11,,
,3.131004,-1.81E-11,,
,3.133004,-1.83E-11,,
,3.135004,-1.88E-11,,
,3.137004,-1.95E-11,,
,3.139004,-2.02E-11,,
,3.141004,-2.04E-11,,
,3.143004,-2.04E-11,,
,3.145004,-2.00E-11,,
,3.147004,-1.98E-11,,
,3.149004,-2.00E-11,,
,3.151004,-2.04E-11,,
,3.153004,-2.11E-11,,
,3.155004,-2.17E-11,,
,3.157004,-2.24E-11,,
,3.159004,-2.26E-11,,
,3.161004,-2.24E-11,,
,3.163004,-2.18E-11,,
,3.165004,-2.18E-11,,
,3.167004,-2.21E-11,,
,3.169004,-2.29E-11,,
,3.171004,-2.35E-11,,
,3.173004,-2.40E-11,,
,3.175004,-2.39E-11,,
,3.177004,-2.36E-11,,
,3.179004,-2.32E-11,,
,3.181004,-2.31E-11,,
,3.183004,-2.31E-11,,
,3.185004,-2.36E-11,,
,3.187004,-2.45E-11,,
,3.189004,-2.49E-11,,
,3.191004,-2.50E-11,,
,3.193004,-2.48E-11,,
,3.195004,-2.46E-11,,
,3.197004,-2.45E-11,,
,3.199004,-2.44E-11,,
,3.201004,-2.48E-11,,
,3.203004,-2.50E-11,,
,3.205004,-2.56E-11,,
,3.207004,-2.57E-11,,
,3.209004,-2.56E-11,,
,3.211004,-2.53E-11,,
,3.213004,-2.47E-11,,
,3.215004,-2.45E-11,,
,3.217004,-2.46E-11,,
,3.219004,-2.56E-11,,
,3.221004,-2.63E-11,,
,3.223004,-2.68E-11,,
,3.225004,-2.64E-11,,
,3.227004,-2.62E-11,,
,3.229004,-2.57E-11,,
,3.231004,-2.54E-11,,
,3.233004,-2.51E-11,,
,3.235004,-2.56E-11,,
,3.237004,-2.61E-11,,
,3.239004,-2.65E-11,,
,3.241004,-2.63E-11,,
,3.243004,-2.59E-11,,
,3.245004,-2.53E-11,,
,3.247004,-2.51E-11,,
,3.249004,-2.50E-11,,
,3.251004,-2.55E-11,,
,3.253004,-2.59E-11,,
,3.255004,-2.65E-11,,
,3.257004,-2.69E-11,,
,3.259004,-2.66E-11,,
,3.261004,-2.58E-11,,
,3.263004,-2.49E-11,,
,3.265004,-2.46E-11,,
,3.267004,-2.47E-11,,
,3.269004,-2.51E-11,,
,3.271004,-2.56E-11,,
,3.273004,-2.58E-11,,
,3.275004,-2.55E-11,,
,3.277004,-2.46E-11,,
,3.279004,-2.38E-11,,
,3.281004,-2.33E-11,,
,3.283004,-2.32E-11,,
,3.285004,-2.36E-11,,
,3.287004,-2.40E-11,,
,3.289004,-2.42E-11,,
,3.291004,-2.39E-11,,
,3.293004,-2.32E-11,,
,3.295004,-2.24E-11,,
,3.297004,-2.16E-11,,
,3.299004,-2.10E-11,,
,3.301004,-2.06E-11,,
,3.303004,-2.04E-11,,
,3.305004,-2.06E-11,,
,3.307004,-2.05E-11,,
,3.309004,-2.00E-11,,
,3.311004,-1.88E-11,,
,3.313004,-1.76E-11,,
,3.315004,-1.69E-11,,
,3.317004,-1.68E-11,,
,3.319004,-1.71E-11,,
,3.321004,-1.71E-11,,
,3.323004,-1.68E-11,,
,3.325004,-1.60E-11,,
,3.327004,-1.52E-11,,
,3.329004,-1.41E-11,,
,3.331004,-1.31E-11,,
,3.333004,-1.26E-11,,
,3.335004,-1.25E-11,,
,3.337004,-1.23E-11,,
,3.339004,-1.19E-11,,
,3.341004,-1.10E-11,,
,3.343004,-1.01E-11,,
,3.345004,-8.94E-12,,
,3.347004,-8.08E-12,,
,3.349004,-7.22E-12,,
,3.351004,-6.90E-12,,
,3.353004,-6.79E-12,,
,3.355004,-6.79E-12,,
,3.357004,-6.57E-12,,
,3.359004,-5.82E-12,,
,3.361004,-4.75E-12,,
,3.363004,-3.57E-12,,
,3.365004,-2.71E-12,,
,3.367004,-2.39E-12,,
,3.369004,-2.28E-12,,
,3.371004,-2.39E-12,,
,3.373004,-1.85E-12,,
,3.375004,-1.10E-12,,
,3.377004,-1.33E-13,,
,3.379004,7.26E-13,,
,3.381004,1.59E-12,,
,3.383004,2.01E-12,,
,3.385004,2.12E-12,,
,3.387004,2.01E-12,,
,3.389004,2.23E-12,,
,3.391004,2.55E-12,,
,3.393004,3.20E-12,,
,3.395004,4.05E-12,,
,3.397004,4.81E-12,,
,3.399004,5.45E-12,,
,3.401004,5.56E-12,,
,3.403004,5.45E-12,,
,3.405004,5.13E-12,,
,3.407004,5.24E-12,,
,3.409004,5.77E-12,,
,3.411004,6.85E-12,,
,3.413004,7.70E-12,,
,3.415004,8.03E-12,,
,3.417004,7.60E-12,,
,3.419004,6.95E-12,,
,3.421004,6.42E-12,,
,3.423004,6.20E-12,,
,3.425004,6.31E-12,,
,3.427004,6.85E-12,,
,3.429004,7.49E-12,,
,3.431004,7.92E-12,,
,3.433004,8.03E-12,,
,3.435004,7.60E-12,,
,3.437004,7.06E-12,,
,3.439004,6.52E-12,,
,3.441004,6.63E-12,,
,3.443004,6.85E-12,,
,3.445004,7.49E-12,,
,3.447004,7.38E-12,,
,3.449004,7.49E-12,,
,3.451004,6.95E-12,,
,3.453004,6.42E-12,,
,3.455004,5.77E-12,,
,3.457004,5.34E-12,,
,3.459004,5.45E-12,,
,3.461004,5.66E-12,,
,3.463004,6.09E-12,,
,3.465004,6.20E-12,,
,3.467004,6.09E-12,,
,3.469004,5.45E-12,,
,3.471004,4.91E-12,,
,3.473004,4.48E-12,,
,3.475004,4.27E-12,,
,3.477004,4.38E-12,,
,3.479004,4.59E-12,,
,3.481004,4.70E-12,,
,3.483004,4.38E-12,,
,3.485004,3.73E-12,,
,3.487004,2.98E-12,,
,3.489004,2.23E-12,,
,3.491004,1.48E-12,,
,3.493004,1.48E-12,,
,3.495004,1.69E-12,,
,3.497004,1.80E-12,,
,3.499004,1.37E-12,,
,3.501004,6.19E-13,,
,3.503004,-2.40E-13,,
,3.505004,-9.92E-13,,
,3.507004,-1.64E-12,,
,3.509004,-1.85E-12,,
,3.511004,-2.17E-12,,
,3.513004,-2.17E-12,,
,3.515004,-2.28E-12,,
,3.517004,-2.82E-12,,
,3.519004,-3.89E-12,,
,3.521004,-5.18E-12,,
,3.523004,-6.14E-12,,
,3.525004,-6.79E-12,,
,3.527004,-7.11E-12,,
,3.529004,-7.22E-12,,
,3.531004,-7.43E-12,,
,3.533004,-7.86E-12,,
,3.535004,-8.72E-12,,
,3.537004,-9.69E-12,,
,3.539004,-1.10E-11,,
,3.541004,-1.17E-11,,
,3.543004,-1.22E-11,,
,3.545004,-1.20E-11,,
,3.547004,-1.23E-11,,
,3.549004,-1.27E-11,,
,3.551004,-1.33E-11,,
,3.553004,-1.42E-11,,
,3.555004,-1.53E-11,,
,3.557004,-1.60E-11,,
,3.559004,-1.65E-11,,
,3.561004,-1.63E-11,,
,3.563004,-1.65E-11,,
,3.565004,-1.65E-11,,
,3.567004,-1.70E-11,,
,3.569004,-1.75E-11,,
,3.571004,-1.84E-11,,
,3.573004,-1.88E-11,,
,3.575004,-1.92E-11,,
,3.577004,-1.92E-11,,
,3.579004,-1.90E-11,,
,3.581004,-1.89E-11,,
,3.583004,-1.91E-11,,
,3.585004,-1.99E-11,,
,3.587004,-2.06E-11,,
,3.589004,-2.13E-11,,
,3.591004,-2.15E-11,,
,3.593004,-2.14E-11,,
,3.595004,-2.10E-11,,
,3.597004,-2.07E-11,,
,3.599004,-2.06E-11,,
,3.601004,-2.11E-11,,
,3.603004,-2.15E-11,,
,3.605004,-2.20E-11,,
,3.607004,-2.22E-11,,
,3.609004,-2.20E-11,,
,3.611004,-2.16E-11,,
,3.613004,-2.11E-11,,
,3.615004,-2.10E-11,,
,3.617004,-2.12E-11,,
,3.619004,-2.17E-11,,
,3.621004,-2.22E-11,,
,3.623004,-2.27E-11,,
,3.625004,-2.26E-11,,
,3.627004,-2.22E-11,,
,3.629004,-2.15E-11,,
,3.631004,-2.12E-11,,
,3.633004,-2.11E-11,,
,3.635004,-2.13E-11,,
,3.637004,-2.17E-11,,
,3.639004,-2.19E-11,,
,3.641004,-2.21E-11,,
,3.643004,-2.15E-11,,
,3.645004,-2.10E-11,,
,3.647004,-2.03E-11,,
,3.649004,-2.03E-11,,
,3.651004,-2.04E-11,,
,3.653004,-2.10E-11,,
,3.655004,-2.15E-11,,
,3.657004,-2.16E-11,,
,3.659004,-2.14E-11,,
,3.661004,-2.06E-11,,
,3.663004,-2.00E-11,,
,3.665004,-1.97E-11,,
,3.667004,-1.98E-11,,
,3.669004,-2.01E-11,,
,3.671004,-2.02E-11,,
,3.673004,-2.03E-11,,
,3.675004,-2.02E-11,,
,3.677004,-1.95E-11,,
,3.679004,-1.87E-11,,
,3.681004,-1.81E-11,,
,3.683004,-1.82E-11,,
,3.685004,-1.86E-11,,
,3.687004,-1.92E-11,,
,3.689004,-1.97E-11,,
,3.691004,-1.96E-11,,
,3.693004,-1.90E-11,,
,3.695004,-1.84E-11,,
,3.697004,-1.78E-11,,
,3.699004,-1.81E-11,,
,3.701004,-1.86E-11,,
,3.703004,-1.95E-11,,
,3.705004,-1.99E-11,,
,3.707004,-2.01E-11,,
,3.709004,-1.98E-11,,
,3.711004,-1.92E-11,,
,3.713004,-1.86E-11,,
,3.715004,-1.84E-11,,
,3.717004,-1.88E-11,,
,3.719004,-1.97E-11,,
,3.721004,-2.04E-11,,
,3.723004,-2.07E-11,,
,3.725004,-2.06E-11,,
,3.727004,-2.03E-11,,
,3.729004,-1.99E-11,,
,3.731004,-1.95E-11,,
,3.733004,-1.95E-11,,
,3.735004,-2.00E-11,,
,3.737004,-2.07E-11,,
,3.739004,-2.12E-11,,
,3.741004,-2.11E-11,,
,3.743004,-2.09E-11,,
,3.745004,-2.06E-11,,
,3.747004,-2.01E-11,,
,3.749004,-2.00E-11,,
,3.751004,-2.03E-11,,
,3.753004,-2.11E-11,,
,3.755004,-2.17E-11,,
,3.757004,-2.19E-11,,
,3.759004,-2.17E-11,,
,3.761004,-2.12E-11,,
,3.763004,-2.05E-11,,
,3.765004,-2.05E-11,,
,3.767004,-2.06E-11,,
,3.769004,-2.12E-11,,
,3.771004,-2.16E-11,,
,3.773004,-2.19E-11,,
,3.775004,-2.19E-11,,
,3.777004,-2.15E-11,,
,3.779004,-2.09E-11,,
,3.781004,-2.04E-11,,
,3.783004,-2.09E-11,,
,3.785004,-2.15E-11,,
,3.787004,-2.22E-11,,
,3.789004,-2.28E-11,,
,3.791004,-2.31E-11,,
,3.793004,-2.31E-11,,
,3.795004,-2.25E-11,,
,3.797004,-2.21E-11,,
,3.799004,-2.21E-11,,
,3.801004,-2.29E-11,,
,3.803004,-2.36E-11,,
,3.805004,-2.42E-11,,
,3.807004,-2.43E-11,,
,3.809004,-2.41E-11,,
,3.811004,-2.36E-11,,
,3.813004,-2.31E-11,,
,3.815004,-2.30E-11,,
,3.817004,-2.36E-11,,
,3.819004,-2.47E-11,,
,3.821004,-2.57E-11,,
,3.823004,-2.64E-11,,
,3.825004,-2.65E-11,,
,3.827004,-2.66E-11,,
,3.829004,-2.63E-11,,
,3.831004,-2.65E-11,,
,3.833004,-2.70E-11,,
,3.835004,-2.77E-11,,
,3.837004,-2.85E-11,,
,3.839004,-2.91E-11,,
,3.841004,-2.97E-11,,
,3.843004,-2.97E-11,,
,3.845004,-2.95E-11,,
,3.847004,-2.92E-11,,
,3.849004,-2.95E-11,,
,3.851004,-3.01E-11,,
,3.853004,-3.11E-11,,
,3.855004,-3.19E-11,,
,3.857004,-3.24E-11,,
,3.859004,-3.27E-11,,
,3.861004,-3.26E-11,,
,3.863004,-3.24E-11,,
,3.865004,-3.27E-11,,
,3.867004,-3.32E-11,,
,3.869004,-3.39E-11,,
,3.871004,-3.46E-11,,
,3.873004,-3.50E-11,,
,3.875004,-3.50E-11,,
,3.877004,-3.47E-11,,
,3.879004,-3.42E-11,,
,3.881004,-3.39E-11,,
,3.883004,-3.38E-11,,
,3.885004,-3.43E-11,,
,3.887004,-3.49E-11,,
,3.889004,-3.52E-11,,
,3.891004,-3.52E-11,,
,3.893004,-3.47E-11,,
,3.895004,-3.42E-11,,
,3.897004,-3.35E-11,,
,3.899004,-3.32E-11,,
,3.901004,-3.32E-11,,
,3.903004,-3.34E-11,,
,3.905004,-3.33E-11,,
,3.907004,-3.31E-11,,
,3.909004,-3.22E-11,,
,3.911004,-3.12E-11,,
,3.913004,-3.01E-11,,
,3.915004,-2.92E-11,,
,3.917004,-2.89E-11,,
,3.919004,-2.86E-11,,
,3.921004,-2.84E-11,,
,3.923004,-2.77E-11,,
,3.925004,-2.68E-11,,
,3.927004,-2.56E-11,,
,3.929004,-2.41E-11,,
,3.931004,-2.26E-11,,
,3.933004,-2.13E-11,,
,3.935004,-2.07E-11,,
,3.937004,-2.02E-11,,
,3.939004,-1.96E-11,,
,3.941004,-1.82E-11,,
,3.943004,-1.68E-11,,
,3.945004,-1.52E-11,,
,3.947004,-1.37E-11,,
,3.949004,-1.23E-11,,
,3.951004,-1.12E-11,,
,3.953004,-1.03E-11,,
,3.955004,-9.47E-12,,
,3.957004,-8.29E-12,,
,3.959004,-7.00E-12,,
,3.961004,-5.39E-12,,
,3.963004,-3.57E-12,,
,3.965004,-1.85E-12,,
,3.967004,-8.84E-13,,
,3.969004,-2.53E-14,,
,3.971004,7.26E-13,,
,3.973004,2.01E-12,,
,3.975004,3.41E-12,,
,3.977004,5.24E-12,,
,3.979004,7.06E-12,,
,3.981004,8.56E-12,,
,3.983004,9.85E-12,,
,3.985004,1.07E-11,,
,3.987004,1.16E-11,,
,3.989004,1.22E-11,,
,3.991004,1.33E-11,,
,3.993004,1.44E-11,,
,3.995004,1.60E-11,,
,3.997004,1.77E-11,,
,3.999004,1.92E-11,,
,4.001004,1.99E-11,,
,4.003004,2.02E-11,,
,4.005004,2.06E-11,,
,4.007004,2.12E-11,,
,4.009004,2.24E-11,,
,4.011004,2.37E-11,,
,4.013004,2.50E-11,,
,4.015004,2.58E-11,,
,4.017004,2.62E-11,,
,4.019004,2.64E-11,,
,4.021004,2.66E-11,,
,4.023004,2.69E-11,,
,4.025004,2.74E-11,,
,4.027004,2.80E-11,,
,4.029004,2.91E-11,,
,4.031004,2.99E-11,,
,4.033004,3.05E-11,,
,4.035004,3.02E-11,,
,4.037004,3.00E-11,,
,4.039004,2.98E-11,,
,4.041004,3.01E-11,,
,4.043004,3.06E-11,,
,4.045004,3.12E-11,,
,4.047004,3.15E-11,,
,4.049004,3.16E-11,,
,4.051004,3.09E-11,,
,4.053004,2.99E-11,,
,4.055004,2.91E-11,,
,4.057004,2.87E-11,,
,4.059004,2.90E-11,,
,4.061004,2.91E-11,,
,4.063004,2.92E-11,,
,4.065004,2.86E-11,,
,4.067004,2.80E-11,,
,4.069004,2.70E-11,,
,4.071004,2.62E-11,,
,4.073004,2.51E-11,,
,4.075004,2.46E-11,,
,4.077004,2.42E-11,,
,4.079004,2.42E-11,,
,4.081004,2.36E-11,,
,4.083004,2.26E-11,,
,4.085004,2.10E-11,,
,4.087004,1.95E-11,,
,4.089004,1.79E-11,,
,4.091004,1.70E-11,,
,4.093004,1.65E-11,,
,4.095004,1.61E-11,,
,4.097004,1.53E-11,,
,4.099004,1.43E-11,,
,4.101004,1.30E-11,,
,4.103004,1.15E-11,,
,4.105004,9.85E-12,,
,4.107004,8.24E-12,,
,4.109004,7.38E-12,,
,4.111004,6.85E-12,,
,4.113004,6.63E-12,,
,4.115004,5.45E-12,,
,4.117004,4.05E-12,,
,4.119004,2.34E-12,,
,4.121004,7.26E-13,,
,4.123004,-5.62E-13,,
,4.125004,-1.64E-12,,
,4.127004,-2.17E-12,,
,4.129004,-3.03E-12,,
,4.131004,-3.78E-12,,
,4.133004,-5.07E-12,,
,4.135004,-6.36E-12,,
,4.137004,-7.97E-12,,
,4.139004,-9.15E-12,,
,4.141004,-1.02E-11,,
,4.143004,-1.08E-11,,
,4.145004,-1.11E-11,,
,4.147004,-1.12E-11,,
,4.149004,-1.19E-11,,
,4.151004,-1.29E-11,,
,4.153004,-1.43E-11,,
,4.155004,-1.53E-11,,
,4.157004,-1.60E-11,,
,4.159004,-1.62E-11,,
,4.161004,-1.61E-11,,
,4.163004,-1.62E-11,,
,4.165004,-1.66E-11,,
,4.167004,-1.72E-11,,
,4.169004,-1.78E-11,,
,4.171004,-1.85E-11,,
,4.173004,-1.88E-11,,
,4.175004,-1.87E-11,,
,4.177004,-1.82E-11,,
,4.179004,-1.75E-11,,
,4.181004,-1.71E-11,,
,4.183004,-1.69E-11,,
,4.185004,-1.72E-11,,
,4.187004,-1.76E-11,,
,4.189004,-1.78E-11,,
,4.191004,-1.75E-11,,
,4.193004,-1.68E-11,,
,4.195004,-1.57E-11,,
,4.197004,-1.49E-11,,
,4.199004,-1.43E-11,,
,4.201004,-1.42E-11,,
,4.203004,-1.41E-11,,
,4.205004,-1.40E-11,,
,4.207004,-1.36E-11,,
,4.209004,-1.26E-11,,
,4.211004,-1.13E-11,,
,4.213004,-1.01E-11,,
,4.215004,-8.94E-12,,
,4.217004,-8.18E-12,,
,4.219004,-7.86E-12,,
,4.221004,-7.86E-12,,
,4.223004,-7.54E-12,,
,4.225004,-6.68E-12,,
,4.227004,-5.29E-12,,
,4.229004,-3.89E-12,,
,4.231004,-2.49E-12,,
,4.233004,-1.64E-12,,
,4.235004,-9.92E-13,,
,4.237004,-5.62E-13,,
,4.239004,-2.53E-14,,
,4.241004,9.41E-13,,
,4.243004,2.34E-12,,
,4.245004,3.95E-12,,
,4.247004,5.24E-12,,
,4.249004,6.09E-12,,
,4.251004,6.74E-12,,
,4.253004,7.27E-12,,
,4.255004,7.92E-12,,
,4.257004,8.67E-12,,
,4.259004,9.85E-12,,
,4.261004,1.12E-11,,
,4.263004,1.25E-11,,
,4.265004,1.35E-11,,
,4.267004,1.40E-11,,
,4.269004,1.43E-11,,
,4.271004,1.46E-11,,
,4.273004,1.49E-11,,
,4.275004,1.59E-11,,
,4.277004,1.69E-11,,
,4.279004,1.82E-11,,
,4.281004,1.90E-11,,
,4.283004,1.96E-11,,
,4.285004,1.98E-11,,
,4.287004,1.98E-11,,
,4.289004,1.98E-11,,
,4.291004,2.03E-11,,
,4.293004,2.13E-11,,
,4.295004,2.22E-11,,
,4.297004,2.28E-11,,
,4.299004,2.31E-11,,
,4.301004,2.28E-11,,
,4.303004,2.23E-11,,
,4.305004,2.19E-11,,
,4.307004,2.20E-11,,
,4.309004,2.25E-11,,
,4.311004,2.31E-11,,
,4.313004,2.35E-11,,
,4.315004,2.35E-11,,
,4.317004,2.33E-11,,
,4.319004,2.26E-11,,
,4.321004,2.22E-11,,
,4.323004,2.19E-11,,
,4.325004,2.17E-11,,
,4.327004,2.18E-11,,
,4.329004,2.20E-11,,
,4.331004,2.22E-11,,
,4.333004,2.19E-11,,
,4.335004,2.11E-11,,
,4.337004,2.04E-11,,
,4.339004,1.96E-11,,
,4.341004,1.92E-11,,
,4.343004,1.90E-11,,
,4.345004,1.91E-11,,
,4.347004,1.91E-11,,
,4.349004,1.87E-11,,
,4.351004,1.78E-11,,
,4.353004,1.66E-11,,
,4.355004,1.56E-11,,
,4.357004,1.49E-11,,
,4.359004,1.49E-11,,
,4.361004,1.50E-11,,
,4.363004,1.51E-11,,
,4.365004,1.49E-11,,
,4.367004,1.43E-11,,
,4.369004,1.34E-11,,
,4.371004,1.23E-11,,
,4.373004,1.17E-11,,
,4.375004,1.15E-11,,
,4.377004,1.16E-11,,
,4.379004,1.18E-11,,
,4.381004,1.16E-11,,
,4.383004,1.12E-11,,
,4.385004,1.03E-11,,
,4.387004,9.53E-12,,
,4.389004,8.56E-12,,
,4.391004,8.13E-12,,
,4.393004,7.92E-12,,
,4.395004,8.13E-12,,
,4.397004,8.13E-12,,
,4.399004,7.92E-12,,
,4.401004,7.17E-12,,
,4.403004,6.42E-12,,
,4.405004,5.56E-12,,
,4.407004,4.91E-12,,
,4.409004,4.70E-12,,
,4.411004,4.81E-12,,
,4.413004,5.13E-12,,
,4.415004,4.81E-12,,
,4.417004,4.27E-12,,
,4.419004,3.52E-12,,
,4.421004,2.77E-12,,
,4.423004,2.12E-12,,
,4.425004,1.69E-12,,
,4.427004,1.69E-12,,
,4.429004,2.01E-12,,
,4.431004,2.12E-12,,
,4.433004,1.91E-12,,
,4.435004,9.41E-13,,
,4.437004,-1.33E-13,,
,4.439004,-7.77E-13,,
,4.441004,-9.92E-13,,
,4.443004,-5.62E-13,,
,4.445004,-3.47E-13,,
,4.447004,-2.53E-14,,
,4.449004,-3.47E-13,,
,4.451004,-8.84E-13,,
,4.453004,-1.64E-12,,
,4.455004,-2.39E-12,,
,4.457004,-2.82E-12,,
,4.459004,-2.92E-12,,
,4.461004,-2.60E-12,,
,4.463004,-2.28E-12,,
,4.465004,-2.17E-12,,
,4.467004,-2.49E-12,,
,4.469004,-3.14E-12,,
,4.471004,-3.78E-12,,
,4.473004,-4.10E-12,,
,4.475004,-4.10E-12,,
,4.477004,-3.68E-12,,
,4.479004,-3.03E-12,,
,4.481004,-2.82E-12,,
,4.483004,-3.03E-12,,
,4.485004,-3.68E-12,,
,4.487004,-3.78E-12,,
,4.489004,-4.32E-12,,
,4.491004,-4.53E-12,,
,4.493004,-4.53E-12,,
,4.495004,-3.57E-12,,
,4.497004,-3.03E-12,,
,4.499004,-2.92E-12,,
,4.501004,-3.46E-12,,
,4.503004,-4.10E-12,,
,4.505004,-4.64E-12,,
,4.507004,-4.75E-12,,
,4.509004,-4.21E-12,,
,4.511004,-3.68E-12,,
,4.513004,-3.03E-12,,
,4.515004,-2.92E-12,,
,4.517004,-3.03E-12,,
,4.519004,-3.57E-12,,
,4.521004,-4.00E-12,,
,4.523004,-4.21E-12,,
,4.525004,-4.21E-12,,
,4.527004,-3.57E-12,,
,4.529004,-2.71E-12,,
,4.531004,-1.96E-12,,
,4.533004,-2.17E-12,,
,4.535004,-2.60E-12,,
,4.537004,-3.14E-12,,
,4.539004,-3.35E-12,,
,4.541004,-3.46E-12,,
,4.543004,-2.92E-12,,
,4.545004,-2.28E-12,,
,4.547004,-1.64E-12,,
,4.549004,-1.74E-12,,
,4.551004,-2.07E-12,,
,4.553004,-2.49E-12,,
,4.555004,-2.92E-12,,
,4.557004,-2.92E-12,,
,4.559004,-2.71E-12,,
,4.561004,-1.96E-12,,
,4.563004,-1.31E-12,,
,4.565004,-1.21E-12,,
,4.567004,-1.42E-12,,
,4.569004,-1.96E-12,,
,4.571004,-2.17E-12,,
,4.573004,-2.28E-12,,
,4.575004,-1.85E-12,,
,4.577004,-1.21E-12,,
,4.579004,-4.55E-13,,
,4.581004,-2.40E-13,,
,4.583004,-1.33E-13,,
,4.585004,-4.55E-13,,
,4.587004,-6.69E-13,,
,4.589004,-8.84E-13,,
,4.591004,-6.69E-13,,
,4.593004,-1.33E-13,,
,4.595004,6.19E-13,,
,4.597004,1.16E-12,,
,4.599004,1.69E-12,,
,4.601004,1.69E-12,,
,4.603004,1.48E-12,,
,4.605004,1.26E-12,,
,4.607004,1.26E-12,,
,4.609004,2.01E-12,,
,4.611004,2.87E-12,,
,4.613004,4.05E-12,,
,4.615004,4.59E-12,,
,4.617004,4.59E-12,,
,4.619004,4.38E-12,,
,4.621004,4.05E-12,,
,4.623004,4.38E-12,,
,4.625004,4.91E-12,,
,4.627004,5.99E-12,,
,4.629004,7.06E-12,,
,4.631004,7.81E-12,,
,4.633004,8.24E-12,,
,4.635004,8.03E-12,,
,4.637004,7.81E-12,,
,4.639004,7.70E-12,,
,4.641004,8.46E-12,,
,4.643004,9.21E-12,,
,4.645004,1.02E-11,,
,4.647004,1.08E-11,,
,4.649004,1.14E-11,,
,4.651004,1.16E-11,,
,4.653004,1.14E-11,,
,4.655004,1.14E-11,,
,4.657004,1.18E-11,,
,4.659004,1.23E-11,,
,4.661004,1.33E-11,,
,4.663004,1.40E-11,,
,4.665004,1.46E-11,,
,4.667004,1.47E-11,,
,4.669004,1.45E-11,,
,4.671004,1.47E-11,,
,4.673004,1.48E-11,,
,4.675004,1.53E-11,,
,4.677004,1.59E-11,,
,4.679004,1.66E-11,,
,4.681004,1.70E-11,,
,4.683004,1.70E-11,,
,4.685004,1.68E-11,,
,4.687004,1.62E-11,,
,4.689004,1.59E-11,,
,4.691004,1.58E-11,,
,4.693004,1.63E-11,,
,4.695004,1.73E-11,,
,4.697004,1.77E-11,,
,4.699004,1.78E-11,,
,4.701004,1.73E-11,,
,4.703004,1.67E-11,,
,4.705004,1.63E-11,,
,4.707004,1.61E-11,,
,4.709004,1.63E-11,,
,4.711004,1.68E-11,,
,4.713004,1.73E-11,,
,4.715004,1.74E-11,,
,4.717004,1.69E-11,,
,4.719004,1.62E-11,,
,4.721004,1.54E-11,,
,4.723004,1.48E-11,,
,4.725004,1.47E-11,,
,4.727004,1.50E-11,,
,4.729004,1.54E-11,,
,4.731004,1.55E-11,,
,4.733004,1.51E-11,,
,4.735004,1.43E-11,,
,4.737004,1.33E-11,,
,4.739004,1.26E-11,,
,4.741004,1.24E-11,,
,4.743004,1.24E-11,,
,4.745004,1.25E-11,,
,4.747004,1.24E-11,,
,4.749004,1.21E-11,,
,4.751004,1.12E-11,,
,4.753004,1.05E-11,,
,4.755004,9.74E-12,,
,4.757004,9.21E-12,,
,4.759004,8.99E-12,,
,4.761004,9.10E-12,,
,4.763004,9.31E-12,,
,4.765004,8.99E-12,,
,4.767004,8.35E-12,,
,4.769004,7.49E-12,,
,4.771004,6.63E-12,,
,4.773004,5.99E-12,,
,4.775004,5.56E-12,,
,4.777004,5.66E-12,,
,4.779004,5.77E-12,,
,4.781004,5.66E-12,,
,4.783004,5.02E-12,,
,4.785004,3.95E-12,,
,4.787004,3.09E-12,,
,4.789004,2.44E-12,,
,4.791004,2.12E-12,,
,4.793004,1.91E-12,,
,4.795004,2.01E-12,,
,4.797004,2.23E-12,,
,4.799004,2.01E-12,,
,4.801004,1.16E-12,,
,4.803004,-1.33E-13,,
,4.805004,-1.21E-12,,
,4.807004,-1.53E-12,,
,4.809004,-1.53E-12,,
,4.811004,-1.10E-12,,
,4.813004,-1.10E-12,,
,4.815004,-1.31E-12,,
,4.817004,-2.07E-12,,
,4.819004,-3.03E-12,,
,4.821004,-3.78E-12,,
,4.823004,-4.21E-12,,
,4.825004,-4.32E-12,,
,4.827004,-4.32E-12,,
,4.829004,-4.10E-12,,
,4.831004,-4.00E-12,,
,4.833004,-4.21E-12,,
,4.835004,-4.75E-12,,
,4.837004,-5.61E-12,,
,4.839004,-6.04E-12,,
,4.841004,-6.25E-12,,
,4.843004,-5.82E-12,,
,4.845004,-5.50E-12,,
,4.847004,-5.29E-12,,
,4.849004,-5.39E-12,,
,4.851004,-5.82E-12,,
,4.853004,-6.47E-12,,
,4.855004,-7.11E-12,,
,4.857004,-7.33E-12,,
,4.859004,-7.11E-12,,
,4.861004,-6.79E-12,,
,4.863004,-6.25E-12,,
,4.865004,-6.25E-12,,
,4.867004,-6.68E-12,,
,4.869004,-7.11E-12,,
,4.871004,-7.65E-12,,
,4.873004,-7.75E-12,,
,4.875004,-8.08E-12,,
,4.877004,-7.65E-12,,
,4.879004,-7.00E-12,,
,4.881004,-6.57E-12,,
,4.883004,-6.47E-12,,
,4.885004,-7.00E-12,,
,4.887004,-7.65E-12,,
,4.889004,-7.97E-12,,
,4.891004,-7.97E-12,,
,4.893004,-7.54E-12,,
,4.895004,-7.33E-12,,
,4.897004,-6.90E-12,,
,4.899004,-7.00E-12,,
,4.901004,-7.43E-12,,
,4.903004,-8.29E-12,,
,4.905004,-8.83E-12,,
,4.907004,-8.94E-12,,
,4.909004,-8.72E-12,,
,4.911004,-8.18E-12,,
,4.913004,-7.65E-12,,
,4.915004,-7.33E-12,,
,4.917004,-7.54E-12,,
,4.919004,-8.29E-12,,
,4.921004,-8.83E-12,,
,4.923004,-9.04E-12,,
,4.925004,-8.83E-12,,
,4.927004,-8.51E-12,,
,4.929004,-8.40E-12,,
,4.931004,-8.18E-12,,
,4.933004,-8.29E-12,,
,4.935004,-8.61E-12,,
,4.937004,-9.15E-12,,
,4.939004,-9.58E-12,,
,4.941004,-9.47E-12,,
,4.943004,-9.04E-12,,
,4.945004,-8.40E-12,,
,4.947004,-7.86E-12,,
,4.949004,-7.75E-12,,
,4.951004,-7.97E-12,,
,4.953004,-8.61E-12,,
,4.955004,-8.94E-12,,
,4.957004,-9.04E-12,,
,4.959004,-8.61E-12,,
,4.961004,-8.08E-12,,
,4.963004,-7.54E-12,,
,4.965004,-7.22E-12,,
,4.967004,-7.22E-12,,
,4.969004,-7.65E-12,,
,4.971004,-7.97E-12,,
,4.973004,-8.18E-12,,
,4.975004,-7.65E-12,,
,4.977004,-7.00E-12,,
,4.979004,-6.25E-12,,
,4.981004,-5.72E-12,,
,4.983004,-5.50E-12,,
,4.985004,-5.61E-12,,
,4.987004,-5.93E-12,,
,4.989004,-6.25E-12,,
,4.991004,-5.93E-12,,
,4.993004,-5.39E-12,,
,4.995004,-4.43E-12,,
,4.997004,-3.78E-12,,
,4.999004,-3.35E-12,,
,5.001004,-3.57E-12,,
,5.003004,-4.10E-12,,
,5.005004,-4.43E-12,,
,5.007004,-4.00E-12,,
,5.009004,-3.46E-12,,
,5.011004,-2.60E-12,,
,5.013004,-2.07E-12,,
,5.015004,-1.64E-12,,
,5.017004,-1.64E-12,,
,5.019004,-2.07E-12,,
,5.021004,-2.28E-12,,
,5.023004,-2.49E-12,,
,5.025004,-2.17E-12,,
,5.027004,-1.53E-12,,
,5.029004,-6.69E-13,,
,5.031004,-1.33E-13,,
,5.033004,-2.53E-14,,
,5.035004,-5.62E-13,,
,5.037004,-1.10E-12,,
,5.039004,-1.53E-12,,
,5.041004,-1.21E-12,,
,5.043004,-4.55E-13,,
,5.045004,8.20E-14,,
,5.047004,6.19E-13,,
,5.049004,6.19E-13,,
,5.051004,5.11E-13,,
,5.053004,-2.53E-14,,
,5.055004,-4.55E-13,,
,5.057004,-5.62E-13,,
,5.059004,-3.47E-13,,
,5.061004,-2.53E-14,,
,5.063004,4.04E-13,,
,5.065004,5.11E-13,,
,5.067004,5.11E-13,,
,5.069004,8.20E-14,,
,5.071004,-1.33E-13,,
,5.073004,-2.40E-13,,
,5.075004,8.20E-14,,
,5.077004,6.19E-13,,
,5.079004,1.37E-12,,
,5.081004,1.69E-12,,
,5.083004,1.59E-12,,
,5.085004,1.16E-12,,
,5.087004,9.41E-13,,
,5.089004,7.26E-13,,
,5.091004,7.26E-13,,
,5.093004,1.26E-12,,
,5.095004,2.01E-12,,
,5.097004,2.87E-12,,
,5.099004,2.98E-12,,
,5.101004,2.77E-12,,
,5.103004,2.34E-12,,
,5.105004,2.34E-12,,
,5.107004,2.44E-12,,
,5.109004,2.77E-12,,
,5.111004,3.41E-12,,
,5.113004,4.27E-12,,
,5.115004,4.91E-12,,
,5.117004,4.70E-12,,
,5.119004,4.27E-12,,
,5.121004,3.84E-12,,
,5.123004,3.95E-12,,
,5.125004,4.16E-12,,
,5.127004,4.70E-12,,
,5.129004,5.34E-12,,
,5.131004,5.99E-12,,
,5.133004,6.09E-12,,
,5.135004,5.88E-12,,
,5.137004,5.45E-12,,
,5.139004,5.34E-12,,
,5.141004,5.45E-12,,
,5.143004,5.99E-12,,
,5.145004,6.74E-12,,
,5.147004,7.17E-12,,
,5.149004,7.27E-12,,
,5.151004,6.95E-12,,
,5.153004,6.42E-12,,
,5.155004,6.09E-12,,
,5.157004,5.88E-12,,
,5.159004,6.42E-12,,
,5.161004,6.85E-12,,
,5.163004,7.27E-12,,
,5.165004,7.38E-12,,
,5.167004,7.17E-12,,
,5.169004,6.63E-12,,
,5.171004,5.88E-12,,
,5.173004,5.34E-12,,
,5.175004,5.45E-12,,
,5.177004,5.88E-12,,
,5.179004,6.31E-12,,
,5.181004,6.42E-12,,
,5.183004,6.09E-12,,
,5.185004,5.56E-12,,
,5.187004,4.70E-12,,
,5.189004,4.05E-12,,
,5.191004,3.62E-12,,
,5.193004,3.95E-12,,
,5.195004,4.16E-12,,
,5.197004,4.48E-12,,
,5.199004,3.95E-12,,
,5.201004,3.41E-12,,
,5.203004,2.44E-12,,
,5.205004,1.69E-12,,
,5.207004,1.26E-12,,
,5.209004,1.26E-12,,
,5.211004,1.48E-12,,
,5.213004,1.26E-12,,
,5.215004,1.16E-12,,
,5.217004,8.34E-13,,
,5.219004,8.20E-14,,
,5.221004,-9.92E-13,,
,5.223004,-1.85E-12,,
,5.225004,-1.96E-12,,
,5.227004,-2.07E-12,,
,5.229004,-1.96E-12,,
,5.231004,-2.28E-12,,
,5.233004,-2.71E-12,,
,5.235004,-3.68E-12,,
,5.237004,-4.75E-12,,
,5.239004,-5.39E-12,,
,5.241004,-6.04E-12,,
,5.243004,-5.93E-12,,
,5.245004,-5.93E-12,,
,5.247004,-5.82E-12,,
,5.249004,-6.14E-12,,
,5.251004,-6.79E-12,,
,5.253004,-7.65E-12,,
,5.255004,-8.40E-12,,
,5.257004,-8.83E-12,,
,5.259004,-8.94E-12,,
,5.261004,-8.94E-12,,
,5.263004,-9.04E-12,,
,5.265004,-9.15E-12,,
,5.267004,-9.69E-12,,
,5.269004,-1.04E-11,,
,5.271004,-1.13E-11,,
,5.273004,-1.17E-11,,
,5.275004,-1.17E-11,,
,5.277004,-1.14E-11,,
,5.279004,-1.12E-11,,
,5.281004,-1.13E-11,,
,5.283004,-1.18E-11,,
,5.285004,-1.28E-11,,
,5.287004,-1.38E-11,,
,5.289004,-1.44E-11,,
,5.291004,-1.47E-11,,
,5.293004,-1.46E-11,,
,5.295004,-1.46E-11,,
,5.297004,-1.45E-11,,
,5.299004,-1.48E-11,,
,5.301004,-1.56E-11,,
,5.303004,-1.67E-11,,
,5.305004,-1.76E-11,,
,5.307004,-1.80E-11,,
,5.309004,-1.80E-11,,
,5.311004,-1.74E-11,,
,5.313004,-1.71E-11,,
,5.315004,-1.69E-11,,
,5.317004,-1.75E-11,,
,5.319004,-1.82E-11,,
,5.321004,-1.90E-11,,
,5.323004,-1.96E-11,,
,5.325004,-2.00E-11,,
,5.327004,-1.98E-11,,
,5.329004,-1.95E-11,,
,5.331004,-1.90E-11,,
,5.333004,-1.93E-11,,
,5.335004,-2.00E-11,,
,5.337004,-2.09E-11,,
,5.339004,-2.14E-11,,
,5.341004,-2.14E-11,,
,5.343004,-2.12E-11,,
,5.345004,-2.03E-11,,
,5.347004,-1.99E-11,,
,5.349004,-1.97E-11,,
,5.351004,-2.02E-11,,
,5.353004,-2.07E-11,,
,5.355004,-2.14E-11,,
,5.357004,-2.17E-11,,
,5.359004,-2.15E-11,,
,5.361004,-2.10E-11,,
,5.363004,-2.05E-11,,
,5.365004,-2.05E-11,,
,5.367004,-2.10E-11,,
,5.369004,-2.16E-11,,
,5.371004,-2.20E-11,,
,5.373004,-2.21E-11,,
,5.375004,-2.19E-11,,
,5.377004,-2.14E-11,,
,5.379004,-2.06E-11,,
,5.381004,-2.01E-11,,
,5.383004,-2.01E-11,,
,5.385004,-2.05E-11,,
,5.387004,-2.10E-11,,
,5.389004,-2.12E-11,,
,5.391004,-2.09E-11,,
,5.393004,-2.03E-11,,
,5.395004,-1.95E-11,,
,5.397004,-1.88E-11,,
,5.399004,-1.84E-11,,
,5.401004,-1.86E-11,,
,5.403004,-1.90E-11,,
,5.405004,-1.92E-11,,
,5.407004,-1.89E-11,,
,5.409004,-1.81E-11,,
,5.411004,-1.71E-11,,
,5.413004,-1.62E-11,,
,5.415004,-1.58E-11,,
,5.417004,-1.57E-11,,
,5.419004,-1.58E-11,,
,5.421004,-1.58E-11,,
,5.423004,-1.53E-11,,
,5.425004,-1.46E-11,,
,5.427004,-1.38E-11,,
,5.429004,-1.30E-11,,
,5.431004,-1.23E-11,,
,5.433004,-1.19E-11,,
,5.435004,-1.18E-11,,
,5.437004,-1.18E-11,,
,5.439004,-1.16E-11,,
,5.441004,-1.12E-11,,
,5.443004,-1.03E-11,,
,5.445004,-9.26E-12,,
,5.447004,-8.40E-12,,
,5.449004,-7.86E-12,,
,5.451004,-7.75E-12,,
,5.453004,-7.86E-12,,
,5.455004,-8.18E-12,,
,5.457004,-7.75E-12,,
,5.459004,-6.79E-12,,
,5.461004,-5.50E-12,,
,5.463004,-4.53E-12,,
,5.465004,-4.21E-12,,
,5.467004,-4.00E-12,,
,5.469004,-4.21E-12,,
,5.471004,-4.21E-12,,
,5.473004,-4.00E-12,,
,5.475004,-3.25E-12,,
,5.477004,-2.28E-12,,
,5.479004,-1.42E-12,,
,5.481004,-7.77E-13,,
,5.483004,-3.47E-13,,
,5.485004,-4.55E-13,,
,5.487004,-6.69E-13,,
,5.489004,-6.69E-13,,
,5.491004,-2.40E-13,,
,5.493004,5.11E-13,,
,5.495004,1.26E-12,,
,5.497004,2.23E-12,,
,5.499004,2.87E-12,,
,5.501004,2.98E-12,,
,5.503004,2.66E-12,,
,5.505004,2.44E-12,,
,5.507004,2.77E-12,,
,5.509004,3.41E-12,,
,5.511004,4.27E-12,,
,5.513004,5.02E-12,,
,5.515004,5.66E-12,,
,5.517004,5.77E-12,,
,5.519004,5.56E-12,,
,5.521004,5.34E-12,,
,5.523004,5.34E-12,,
,5.525004,5.66E-12,,
,5.527004,6.42E-12,,
,5.529004,7.06E-12,,
,5.531004,7.70E-12,,
,5.533004,7.70E-12,,
,5.535004,7.60E-12,,
,5.537004,7.38E-12,,
,5.539004,7.17E-12,,
,5.541004,7.60E-12,,
,5.543004,8.13E-12,,
,5.545004,9.31E-12,,
,5.547004,9.96E-12,,
,5.549004,1.03E-11,,
,5.551004,9.85E-12,,
,5.553004,9.53E-12,,
,5.555004,9.31E-12,,
,5.557004,9.64E-12,,
,5.559004,1.02E-11,,
,5.561004,1.10E-11,,
,5.563004,1.16E-11,,
,5.565004,1.19E-11,,
,5.567004,1.18E-11,,
,5.569004,1.16E-11,,
,5.571004,1.09E-11,,
,5.573004,1.09E-11,,
,5.575004,1.14E-11,,
,5.577004,1.24E-11,,
,5.579004,1.32E-11,,
,5.581004,1.36E-11,,
,5.583004,1.36E-11,,
,5.585004,1.32E-11,,
,5.587004,1.28E-11,,
,5.589004,1.25E-11,,
,5.591004,1.28E-11,,
,5.593004,1.35E-11,,
,5.595004,1.41E-11,,
,5.597004,1.50E-11,,
,5.599004,1.49E-11,,
,5.601004,1.50E-11,,
,5.603004,1.46E-11,,
,5.605004,1.45E-11,,
,5.607004,1.45E-11,,
,5.609004,1.49E-11,,
,5.611004,1.56E-11,,
,5.613004,1.62E-11,,
,5.615004,1.66E-11,,
,5.617004,1.64E-11,,
,5.619004,1.60E-11,,
,5.621004,1.55E-11,,
,5.623004,1.55E-11,,
,5.625004,1.60E-11,,
,5.627004,1.63E-11,,
,5.629004,1.69E-11,,
,5.631004,1.70E-11,,
,5.633004,1.72E-11,,
,5.635004,1.68E-11,,
,5.637004,1.64E-11,,
,5.639004,1.62E-11,,
,5.641004,1.63E-11,,
,5.643004,1.70E-11,,
,5.645004,1.79E-11,,
,5.647004,1.85E-11,,
,5.649004,1.87E-11,,
,5.651004,1.82E-11,,
,5.653004,1.77E-11,,
,5.655004,1.74E-11,,
,5.657004,1.74E-11,,
,5.659004,1.78E-11,,
,5.661004,1.85E-11,,
,5.663004,1.89E-11,,
,5.665004,1.89E-11,,
,5.667004,1.84E-11,,
,5.669004,1.82E-11,,
,5.671004,1.80E-11,,
,5.673004,1.77E-11,,
,5.675004,1.78E-11,,
,5.677004,1.81E-11,,
,5.679004,1.89E-11,,
,5.681004,1.91E-11,,
,5.683004,1.91E-11,,
,5.685004,1.84E-11,,
,5.687004,1.78E-11,,
,5.689004,1.72E-11,,
,5.691004,1.68E-11,,
,5.693004,1.69E-11,,
,5.695004,1.73E-11,,
,5.697004,1.74E-11,,
,5.699004,1.70E-11,,
,5.701004,1.63E-11,,
,5.703004,1.56E-11,,
,5.705004,1.52E-11,,
,5.707004,1.50E-11,,
,5.709004,1.51E-11,,
,5.711004,1.53E-11,,
,5.713004,1.55E-11,,
,5.715004,1.54E-11,,
,5.717004,1.48E-11,,
,5.719004,1.38E-11,,
,5.721004,1.30E-11,,
,5.723004,1.24E-11,,
,5.725004,1.23E-11,,
,5.727004,1.25E-11,,
,5.729004,1.28E-11,,
,5.731004,1.25E-11,,
,5.733004,1.18E-11,,
,5.735004,1.09E-11,,
,5.737004,9.96E-12,,
,5.739004,9.21E-12,,
,5.741004,8.78E-12,,
,5.743004,8.99E-12,,
,5.745004,9.10E-12,,
,5.747004,9.10E-12,,
,5.749004,8.56E-12,,
,5.751004,7.81E-12,,
,5.753004,6.63E-12,,
,5.755004,5.77E-12,,
,5.757004,5.24E-12,,
,5.759004,5.13E-12,,
,5.761004,5.24E-12,,
,5.763004,5.13E-12,,
,5.765004,4.91E-12,,
,5.767004,4.16E-12,,
,5.769004,2.98E-12,,
,5.771004,1.80E-12,,
,5.773004,9.41E-13,,
,5.775004,7.26E-13,,
,5.777004,7.26E-13,,
,5.779004,6.19E-13,,
,5.781004,4.04E-13,,
,5.783004,-4.55E-13,,
,5.785004,-1.42E-12,,
,5.787004,-2.71E-12,,
,5.789004,-3.46E-12,,
,5.791004,-3.89E-12,,
,5.793004,-3.78E-12,,
,5.795004,-3.78E-12,,
,5.797004,-4.10E-12,,
,5.799004,-4.86E-12,,
,5.801004,-5.72E-12,,
,5.803004,-6.79E-12,,
,5.805004,-7.65E-12,,
,5.807004,-8.40E-12,,
,5.809004,-8.72E-12,,
,5.811004,-8.72E-12,,
,5.813004,-8.61E-12,,
,5.815004,-8.94E-12,,
,5.817004,-9.58E-12,,
,5.819004,-1.07E-11,,
,5.821004,-1.15E-11,,
,5.823004,-1.23E-11,,
,5.825004,-1.26E-11,,
,5.827004,-1.27E-11,,
,5.829004,-1.27E-11,,
,5.831004,-1.30E-11,,
,5.833004,-1.37E-11,,
,5.835004,-1.47E-11,,
,5.837004,-1.57E-11,,
,5.839004,-1.65E-11,,
,5.841004,-1.66E-11,,
,5.843004,-1.66E-11,,
,5.845004,-1.63E-11,,
,5.847004,-1.65E-11,,
,5.849004,-1.66E-11,,
,5.851004,-1.74E-11,,
,5.853004,-1.82E-11,,
,5.855004,-1.89E-11,,
,5.857004,-1.91E-11,,
,5.859004,-1.92E-11,,
,5.861004,-1.89E-11,,
,5.863004,-1.86E-11,,
,5.865004,-1.87E-11,,
,5.867004,-1.92E-11,,
,5.869004,-1.98E-11,,
,5.871004,-2.04E-11,,
,5.873004,-2.07E-11,,
,5.875004,-2.07E-11,,
,5.877004,-2.01E-11,,
,5.879004,-1.95E-11,,
,5.881004,-1.90E-11,,
,5.883004,-1.89E-11,,
,5.885004,-1.93E-11,,
,5.887004,-1.99E-11,,
,5.889004,-2.02E-11,,
,5.891004,-2.01E-11,,
,5.893004,-1.93E-11,,
,5.895004,-1.84E-11,,
,5.897004,-1.75E-11,,
,5.899004,-1.75E-11,,
,5.901004,-1.80E-11,,
,5.903004,-1.83E-11,,
,5.905004,-1.83E-11,,
,5.907004,-1.78E-11,,
,5.909004,-1.72E-11,,
,5.911004,-1.62E-11,,
,5.913004,-1.54E-11,,
,5.915004,-1.48E-11,,
,5.917004,-1.47E-11,,
,5.919004,-1.48E-11,,
,5.921004,-1.48E-11,,
,5.923004,-1.45E-11,,
,5.925004,-1.38E-11,,
,5.927004,-1.28E-11,,
,5.929004,-1.15E-11,,
,5.931004,-1.09E-11,,
,5.933004,-1.02E-11,,
,5.935004,-1.01E-11,,
,5.937004,-9.69E-12,,
,5.939004,-9.37E-12,,
,5.941004,-8.94E-12,,
,5.943004,-7.86E-12,,
,5.945004,-6.79E-12,,
,5.947004,-5.50E-12,,
,5.949004,-4.96E-12,,
,5.951004,-4.53E-12,,
,5.953004,-4.21E-12,,
,5.955004,-3.78E-12,,
,5.957004,-3.14E-12,,
,5.959004,-2.17E-12,,
,5.961004,-1.21E-12,,
,5.963004,-2.40E-13,,
,5.965004,2.97E-13,,
,5.967004,7.26E-13,,
,5.969004,7.26E-13,,
,5.971004,8.34E-13,,
,5.973004,9.41E-13,,
,5.975004,1.91E-12,,
,5.977004,2.87E-12,,
,5.979004,4.16E-12,,
,5.981004,5.13E-12,,
,5.983004,5.45E-12,,
,5.985004,5.34E-12,,
,5.987004,5.02E-12,,
,5.989004,5.13E-12,,
,5.991004,5.66E-12,,
,5.993004,6.31E-12,,
,5.995004,7.27E-12,,
,5.997004,7.81E-12,,
,5.999004,8.13E-12,,
,6.001004,7.92E-12,,
,6.003004,7.92E-12,,
,6.005004,7.92E-12,,
,6.007004,8.46E-12,,
,6.009004,9.10E-12,,
,6.011004,9.74E-12,,
,6.013004,1.03E-11,,
,6.015004,1.07E-11,,
,6.017004,1.06E-11,,
,6.019004,1.03E-11,,
,6.021004,9.85E-12,,
,6.023004,9.96E-12,,
,6.025004,1.04E-11,,
,6.027004,1.10E-11,,
,6.029004,1.16E-11,,
,6.031004,1.19E-11,,
,6.033004,1.18E-11,,
,6.035004,1.16E-11,,
,6.037004,1.09E-11,,
,6.039004,1.07E-11,,
,6.041004,1.08E-11,,
,6.043004,1.14E-11,,
,6.045004,1.19E-11,,
,6.047004,1.21E-11,,
,6.049004,1.20E-11,,
,6.051004,1.15E-11,,
,6.053004,1.08E-11,,
,6.055004,1.02E-11,,
,6.057004,9.85E-12,,
,6.059004,9.96E-12,,
,6.061004,1.04E-11,,
,6.063004,1.06E-11,,
,6.065004,1.03E-11,,
,6.067004,9.74E-12,,
,6.069004,8.89E-12,,
,6.071004,8.35E-12,,
,6.073004,7.70E-12,,
,6.075004,7.70E-12,,
,6.077004,7.49E-12,,
,6.079004,7.49E-12,,
,6.081004,7.38E-12,,
,6.083004,7.17E-12,,
,6.085004,6.52E-12,,
,6.087004,5.66E-12,,
,6.089004,5.13E-12,,
,6.091004,5.02E-12,,
,6.093004,4.91E-12,,
,6.095004,4.70E-12,,
,6.097004,4.48E-12,,
,6.099004,4.05E-12,,
,6.101004,3.30E-12,,
,6.103004,2.23E-12,,
,6.105004,1.48E-12,,
,6.107004,1.05E-12,,
,6.109004,8.34E-13,,
,6.111004,8.34E-13,,
,6.113004,6.19E-13,,
,6.115004,4.04E-13,,
,6.117004,-4.55E-13,,
,6.119004,-1.31E-12,,
,6.121004,-2.28E-12,,
,6.123004,-3.03E-12,,
,6.125004,-3.35E-12,,
,6.127004,-3.46E-12,,
,6.129004,-3.46E-12,,
,6.131004,-3.68E-12,,
,6.133004,-4.43E-12,,
,6.135004,-5.50E-12,,
,6.137004,-6.79E-12,,
,6.139004,-7.43E-12,,
,6.141004,-7.54E-12,,
,6.143004,-7.33E-12,,
,6.145004,-7.22E-12,,
,6.147004,-7.33E-12,,
,6.149004,-7.86E-12,,
,6.151004,-8.83E-12,,
,6.153004,-9.90E-12,,
,6.155004,-1.09E-11,,
,6.157004,-1.15E-11,,
,6.159004,-1.18E-11,,
,6.161004,-1.18E-11,,
,6.163004,-1.17E-11,,
,6.165004,-1.23E-11,,
,6.167004,-1.31E-11,,
,6.169004,-1.43E-11,,
,6.171004,-1.54E-11,,
,6.173004,-1.62E-11,,
,6.175004,-1.66E-11,,
,6.177004,-1.65E-11,,
,6.179004,-1.66E-11,,
,6.181004,-1.69E-11,,
,6.183004,-1.76E-11,,
,6.185004,-1.86E-11,,
,6.187004,-1.98E-11,,
,6.189004,-2.07E-11,,
,6.191004,-2.12E-11,,
,6.193004,-2.14E-11,,
,6.195004,-2.15E-11,,
,6.197004,-2.16E-11,,
,6.199004,-2.24E-11,,
,6.201004,-2.32E-11,,
,6.203004,-2.43E-11,,
,6.205004,-2.51E-11,,
,6.207004,-2.57E-11,,
,6.209004,-2.61E-11,,
,6.211004,-2.58E-11,,
,6.213004,-2.61E-11,,
,6.215004,-2.63E-11,,
,6.217004,-2.73E-11,,
,6.219004,-2.82E-11,,
,6.221004,-2.92E-11,,
,6.223004,-3.00E-11,,
,6.225004,-3.01E-11,,
,6.227004,-3.01E-11,,
,6.229004,-3.01E-11,,
,6.231004,-3.03E-11,,
,6.233004,-3.06E-11,,
,6.235004,-3.15E-11,,
,6.237004,-3.23E-11,,
,6.239004,-3.31E-11,,
,6.241004,-3.32E-11,,
,6.243004,-3.31E-11,,
,6.245004,-3.28E-11,,
,6.247004,-3.26E-11,,
,6.249004,-3.28E-11,,
,6.251004,-3.33E-11,,
,6.253004,-3.39E-11,,
,6.255004,-3.46E-11,,
,6.257004,-3.49E-11,,
,6.259004,-3.47E-11,,
,6.261004,-3.42E-11,,
,6.263004,-3.37E-11,,
,6.265004,-3.36E-11,,
,6.267004,-3.41E-11,,
,6.269004,-3.47E-11,,
,6.271004,-3.55E-11,,
,6.273004,-3.57E-11,,
,6.275004,-3.56E-11,,
,6.277004,-3.51E-11,,
,6.279004,-3.46E-11,,
,6.281004,-3.41E-11,,
,6.283004,-3.36E-11,,
,6.285004,-3.38E-11,,
,6.287004,-3.43E-11,,
,6.289004,-3.47E-11,,
,6.291004,-3.46E-11,,
,6.293004,-3.39E-11,,
,6.295004,-3.32E-11,,
,6.297004,-3.28E-11,,
,6.299004,-3.26E-11,,
,6.301004,-3.26E-11,,
,6.303004,-3.28E-11,,
,6.305004,-3.31E-11,,
,6.307004,-3.32E-11,,
,6.309004,-3.24E-11,,
,6.311004,-3.16E-11,,
,6.313004,-3.05E-11,,
,6.315004,-2.99E-11,,
,6.317004,-2.98E-11,,
,6.319004,-3.02E-11,,
,6.321004,-3.04E-11,,
,6.323004,-3.01E-11,,
,6.325004,-2.94E-11,,
,6.327004,-2.85E-11,,
,6.329004,-2.74E-11,,
,6.331004,-2.66E-11,,
,6.333004,-2.64E-11,,
,6.335004,-2.64E-11,,
,6.337004,-2.61E-11,,
,6.339004,-2.58E-11,,
,6.341004,-2.50E-11,,
,6.343004,-2.40E-11,,
,6.345004,-2.26E-11,,
,6.347004,-2.15E-11,,
,6.349004,-2.07E-11,,
,6.351004,-2.03E-11,,
,6.353004,-2.01E-11,,
,6.355004,-1.98E-11,,
,6.357004,-1.89E-11,,
,6.359004,-1.75E-11,,
,6.361004,-1.62E-11,,
,6.363004,-1.52E-11,,
,6.365004,-1.43E-11,,
,6.367004,-1.34E-11,,
,6.369004,-1.29E-11,,
,6.371004,-1.25E-11,,
,6.373004,-1.15E-11,,
,6.375004,-1.03E-11,,
,6.377004,-8.83E-12,,
,6.379004,-7.43E-12,,
,6.381004,-6.14E-12,,
,6.383004,-5.29E-12,,
,6.385004,-4.64E-12,,
,6.387004,-4.00E-12,,
,6.389004,-3.14E-12,,
,6.391004,-1.96E-12,,
,6.393004,-4.55E-13,,
,6.395004,1.26E-12,,
,6.397004,2.44E-12,,
,6.399004,3.73E-12,,
,6.401004,4.27E-12,,
,6.403004,4.91E-12,,
,6.405004,5.34E-12,,
,6.407004,6.52E-12,,
,6.409004,8.13E-12,,
,6.411004,9.74E-12,,
,6.413004,1.12E-11,,
,6.415004,1.23E-11,,
,6.417004,1.31E-11,,
,6.419004,1.37E-11,,
,6.421004,1.41E-11,,
,6.423004,1.50E-11,,
,6.425004,1.60E-11,,
,6.427004,1.75E-11,,
,6.429004,1.89E-11,,
,6.431004,1.98E-11,,
,6.433004,2.04E-11,,
,6.435004,2.06E-11,,
,6.437004,2.10E-11,,
,6.439004,2.13E-11,,
,6.441004,2.20E-11,,
,6.443004,2.27E-11,,
,6.445004,2.38E-11,,
,6.447004,2.48E-11,,
,6.449004,2.55E-11,,
,6.451004,2.55E-11,,
,6.453004,2.53E-11,,
,6.455004,2.51E-11,,
,6.457004,2.54E-11,,
,6.459004,2.57E-11,,
,6.461004,2.64E-11,,
,6.463004,2.68E-11,,
,6.465004,2.71E-11,,
,6.467004,2.66E-11,,
,6.469004,2.60E-11,,
,6.471004,2.54E-11,,
,6.473004,2.53E-11,,
,6.475004,2.54E-11,,
,6.477004,2.55E-11,,
,6.479004,2.56E-11,,
,6.481004,2.54E-11,,
,6.483004,2.48E-11,,
,6.485004,2.38E-11,,
,6.487004,2.25E-11,,
,6.489004,2.17E-11,,
,6.491004,2.11E-11,,
,6.493004,2.10E-11,,
,6.495004,2.09E-11,,
,6.497004,2.05E-11,,
,6.499004,1.96E-11,,
,6.501004,1.81E-11,,
,6.503004,1.64E-11,,
,6.505004,1.49E-11,,
,6.507004,1.38E-11,,
,6.509004,1.34E-11,,
,6.511004,1.31E-11,,
,6.513004,1.28E-11,,
,6.515004,1.19E-11,,
,6.517004,1.05E-11,,
,6.519004,8.89E-12,,
,6.521004,7.17E-12,,
,6.523004,5.77E-12,,
,6.525004,4.48E-12,,
,6.527004,3.62E-12,,
,6.529004,3.09E-12,,
,6.531004,2.34E-12,,
,6.533004,9.41E-13,,
,6.535004,-9.92E-13,,
,6.537004,-3.03E-12,,
,6.539004,-4.43E-12,,
,6.541004,-5.50E-12,,
,6.543004,-6.04E-12,,
,6.545004,-6.79E-12,,
,6.547004,-7.65E-12,,
,6.549004,-9.04E-12,,
,6.551004,-1.08E-11,,
,6.553004,-1.26E-11,,
,6.555004,-1.42E-11,,
,6.557004,-1.56E-11,,
,6.559004,-1.67E-11,,
,6.561004,-1.76E-11,,
,6.563004,-1.86E-11,,
,6.565004,-1.99E-11,,
,6.567004,-2.17E-11,,
,6.569004,-2.35E-11,,
,6.571004,-2.55E-11,,
,6.573004,-2.68E-11,,
,6.575004,-2.80E-11,,
,6.577004,-2.88E-11,,
,6.579004,-2.95E-11,,
,6.581004,-3.03E-11,,
,6.583004,-3.17E-11,,
,6.585004,-3.34E-11,,
,6.587004,-3.51E-11,,
,6.589004,-3.66E-11,,
,6.591004,-3.76E-11,,
,6.593004,-3.85E-11,,
,6.595004,-3.91E-11,,
,6.597004,-4.00E-11,,
,6.599004,-4.11E-11,,
,6.601004,-4.25E-11,,
,6.603004,-4.43E-11,,
,6.605004,-4.59E-11,,
,6.607004,-4.69E-11,,
,6.609004,-4.77E-11,,
,6.611004,-4.77E-11,,
,6.613004,-4.81E-11,,
,6.615004,-4.89E-11,,
,6.617004,-5.01E-11,,
,6.619004,-5.13E-11,,
,6.621004,-5.23E-11,,
,6.623004,-5.34E-11,,
,6.625004,-5.41E-11,,
,6.627004,-5.45E-11,,
,6.629004,-5.46E-11,,
,6.631004,-5.49E-11,,
,6.633004,-5.60E-11,,
,6.635004,-5.72E-11,,
,6.637004,-5.84E-11,,
,6.639004,-5.93E-11,,
,6.641004,-5.98E-11,,
,6.643004,-6.01E-11,,
,6.645004,-6.01E-11,,
,6.647004,-6.01E-11,,
,6.649004,-6.06E-11,,
,6.651004,-6.14E-11,,
,6.653004,-6.27E-11,,
,6.655004,-6.37E-11,,
,6.657004,-6.43E-11,,
,6.659004,-6.43E-11,,
,6.661004,-6.40E-11,,
,6.663004,-6.38E-11,,
,6.665004,-6.40E-11,,
,6.667004,-6.47E-11,,
,6.669004,-6.55E-11,,
,6.671004,-6.63E-11,,
,6.673004,-6.68E-11,,
,6.675004,-6.67E-11,,
,6.677004,-6.63E-11,,
,6.679004,-6.56E-11,,
,6.681004,-6.56E-11,,
,6.683004,-6.59E-11,,
,6.685004,-6.66E-11,,
,6.687004,-6.70E-11,,
,6.689004,-6.74E-11,,
,6.691004,-6.74E-11,,
,6.693004,-6.69E-11,,
,6.695004,-6.62E-11,,
,6.697004,-6.56E-11,,
,6.699004,-6.56E-11,,
,6.701004,-6.58E-11,,
,6.703004,-6.60E-11,,
,6.705004,-6.62E-11,,
,6.707004,-6.58E-11,,
,6.709004,-6.51E-11,,
,6.711004,-6.40E-11,,
,6.713004,-6.29E-11,,
,6.715004,-6.22E-11,,
,6.717004,-6.19E-11,,
,6.719004,-6.18E-11,,
,6.721004,-6.15E-11,,
,6.723004,-6.06E-11,,
,6.725004,-5.93E-11,,
,6.727004,-5.79E-11,,
,6.729004,-5.66E-11,,
,6.731004,-5.53E-11,,
,6.733004,-5.43E-11,,
,6.735004,-5.39E-11,,
,6.737004,-5.35E-11,,
,6.739004,-5.26E-11,,
,6.741004,-5.10E-11,,
,6.743004,-4.92E-11,,
,6.745004,-4.70E-11,,
,6.747004,-4.53E-11,,
,6.749004,-4.39E-11,,
,6.751004,-4.30E-11,,
,6.753004,-4.19E-11,,
,6.755004,-4.08E-11,,
,6.757004,-3.92E-11,,
,6.759004,-3.72E-11,,
,6.761004,-3.49E-11,,
,6.763004,-3.28E-11,,
,6.765004,-3.13E-11,,
,6.767004,-2.99E-11,,
,6.769004,-2.88E-11,,
,6.771004,-2.75E-11,,
,6.773004,-2.61E-11,,
,6.775004,-2.42E-11,,
,6.777004,-2.18E-11,,
,6.779004,-1.95E-11,,
,6.781004,-1.74E-11,,
,6.783004,-1.57E-11,,
,6.785004,-1.42E-11,,
,6.787004,-1.28E-11,,
,6.789004,-1.13E-11,,
,6.791004,-9.26E-12,,
,6.793004,-7.00E-12,,
,6.795004,-4.53E-12,,
,6.797004,-2.28E-12,,
,6.799004,-2.53E-14,,
,6.801004,1.59E-12,,
,6.803004,3.20E-12,,
,6.805004,4.59E-12,,
,6.807004,6.63E-12,,
,6.809004,8.89E-12,,
,6.811004,1.17E-11,,
,6.813004,1.43E-11,,
,6.815004,1.65E-11,,
,6.817004,1.81E-11,,
,6.819004,1.95E-11,,
,6.821004,2.12E-11,,
,6.823004,2.32E-11,,
,6.825004,2.53E-11,,
,6.827004,2.77E-11,,
,6.829004,3.00E-11,,
,6.831004,3.24E-11,,
,6.833004,3.40E-11,,
,6.835004,3.53E-11,,
,6.837004,3.66E-11,,
,6.839004,3.81E-11,,
,6.841004,4.02E-11,,
,6.843004,4.27E-11,,
,6.845004,4.53E-11,,
,6.847004,4.74E-11,,
,6.849004,4.91E-11,,
,6.851004,5.05E-11,,
,6.853004,5.17E-11,,
,6.855004,5.30E-11,,
,6.857004,5.47E-11,,
,6.859004,5.68E-11,,
,6.861004,5.90E-11,,
,6.863004,6.10E-11,,
,6.865004,6.27E-11,,
,6.867004,6.37E-11,,
,6.869004,6.48E-11,,
,6.871004,6.59E-11,,
,6.873004,6.71E-11,,
,6.875004,6.86E-11,,
,6.877004,7.02E-11,,
,6.879004,7.20E-11,,
,6.881004,7.31E-11,,
,6.883004,7.38E-11,,
,6.885004,7.42E-11,,
,6.887004,7.44E-11,,
,6.889004,7.48E-11,,
,6.891004,7.56E-11,,
,6.893004,7.66E-11,,
,6.895004,7.78E-11,,
,6.897004,7.86E-11,,
,6.899004,7.90E-11,,
,6.901004,7.86E-11,,
,6.903004,7.82E-11,,
,6.905004,7.77E-11,,
,6.907004,7.78E-11,,
,6.909004,7.79E-11,,
,6.911004,7.85E-11,,
,6.913004,7.86E-11,,
,6.915004,7.83E-11,,
,6.917004,7.75E-11,,
,6.919004,7.63E-11,,
,6.921004,7.51E-11,,
,6.923004,7.44E-11,,
,6.925004,7.39E-11,,
,6.927004,7.37E-11,,
,6.929004,7.34E-11,,
,6.931004,7.27E-11,,
,6.933004,7.15E-11,,
,6.935004,7.00E-11,,
,6.937004,6.85E-11,,
,6.939004,6.70E-11,,
,6.941004,6.57E-11,,
,6.943004,6.48E-11,,
,6.945004,6.42E-11,,
,6.947004,6.32E-11,,
,6.949004,6.19E-11,,
,6.951004,5.99E-11,,
,6.953004,5.81E-11,,
,6.955004,5.60E-11,,
,6.957004,5.45E-11,,
,6.959004,5.32E-11,,
,6.961004,5.21E-11,,
,6.963004,5.11E-11,,
,6.965004,4.93E-11,,
,6.967004,4.72E-11,,
,6.969004,4.47E-11,,
,6.971004,4.25E-11,,
,6.973004,4.06E-11,,
,6.975004,3.91E-11,,
,6.977004,3.79E-11,,
,6.979004,3.64E-11,,
,6.981004,3.45E-11,,
,6.983004,3.24E-11,,
,6.985004,3.00E-11,,
,6.987004,2.76E-11,,
,6.989004,2.52E-11,,
,6.991004,2.32E-11,,
,6.993004,2.14E-11,,
,6.995004,1.97E-11,,
,6.997004,1.77E-11,,
,6.999004,1.55E-11,,
,7.001004,1.29E-11,,
,7.003004,1.03E-11,,
,7.005004,7.70E-12,,
,7.007004,5.66E-12,,
,7.009004,3.84E-12,,
,7.011004,2.23E-12,,
,7.013004,5.11E-13,,
,7.015004,-1.53E-12,,
,7.017004,-4.00E-12,,
,7.019004,-6.79E-12,,
,7.021004,-9.26E-12,,
,7.023004,-1.16E-11,,
,7.025004,-1.32E-11,,
,7.027004,-1.47E-11,,
,7.029004,-1.63E-11,,
,7.031004,-1.83E-11,,
,7.033004,-2.07E-11,,
,7.035004,-2.30E-11,,
,7.037004,-2.54E-11,,
,7.039004,-2.71E-11,,
,7.041004,-2.88E-11,,
,7.043004,-2.99E-11,,
,7.045004,-3.11E-11,,
,7.047004,-3.21E-11,,
,7.049004,-3.38E-11,,
,7.051004,-3.58E-11,,
,7.053004,-3.77E-11,,
,7.055004,-3.93E-11,,
,7.057004,-4.07E-11,,
,7.059004,-4.17E-11,,
,7.061004,-4.23E-11,,
,7.063004,-4.28E-11,,
,7.065004,-4.35E-11,,
,7.067004,-4.48E-11,,
,7.069004,-4.63E-11,,
,7.071004,-4.75E-11,,
,7.073004,-4.83E-11,,
,7.075004,-4.84E-11,,
,7.077004,-4.83E-11,,
,7.079004,-4.79E-11,,
,7.081004,-4.81E-11,,
,7.083004,-4.86E-11,,
,7.085004,-4.93E-11,,
,7.087004,-4.96E-11,,
,7.089004,-4.97E-11,,
,7.091004,-4.92E-11,,
,7.093004,-4.87E-11,,
,7.095004,-4.77E-11,,
,7.097004,-4.69E-11,,
,7.099004,-4.62E-11,,
,7.101004,-4.60E-11,,
,7.103004,-4.58E-11,,
,7.105004,-4.53E-11,,
,7.107004,-4.44E-11,,
,7.109004,-4.30E-11,,
,7.111004,-4.13E-11,,
,7.113004,-3.96E-11,,
,7.115004,-3.81E-11,,
,7.117004,-3.71E-11,,
,7.119004,-3.61E-11,,
,7.121004,-3.52E-11,,
,7.123004,-3.39E-11,,
,7.125004,-3.22E-11,,
,7.127004,-3.02E-11,,
,7.129004,-2.82E-11,,
,7.131004,-2.62E-11,,
,7.133004,-2.45E-11,,
,7.135004,-2.31E-11,,
,7.137004,-2.16E-11,,
,7.139004,-2.00E-11,,
,7.141004,-1.78E-11,,
,7.143004,-1.57E-11,,
,7.145004,-1.30E-11,,
,7.147004,-1.07E-11,,
,7.149004,-8.61E-12,,
,7.151004,-7.22E-12,,
,7.153004,-5.61E-12,,
,7.155004,-4.00E-12,,
,7.157004,-2.07E-12,,
,7.159004,-2.53E-14,,
,7.161004,2.55E-12,,
,7.163004,5.02E-12,,
,7.165004,7.17E-12,,
,7.167004,8.78E-12,,
,7.169004,9.96E-12,,
,7.171004,1.15E-11,,
,7.173004,1.33E-11,,
,7.175004,1.56E-11,,
,7.177004,1.79E-11,,
,7.179004,2.02E-11,,
,7.181004,2.22E-11,,
,7.183004,2.37E-11,,
,7.185004,2.49E-11,,
,7.187004,2.60E-11,,
,7.189004,2.74E-11,,
,7.191004,2.91E-11,,
,7.193004,3.08E-11,,
,7.195004,3.27E-11,,
,7.197004,3.44E-11,,
,7.199004,3.57E-11,,
,7.201004,3.65E-11,,
,7.203004,3.71E-11,,
,7.205004,3.80E-11,,
,7.207004,3.92E-11,,
,7.209004,4.01E-11,,
,7.211004,4.16E-11,,
,7.213004,4.29E-11,,
,7.215004,4.42E-11,,
,7.217004,4.46E-11,,
,7.219004,4.48E-11,,
,7.221004,4.50E-11,,
,7.223004,4.55E-11,,
,7.225004,4.61E-11,,
,7.227004,4.70E-11,,
,7.229004,4.77E-11,,
,7.231004,4.80E-11,,
,7.233004,4.82E-11,,
,7.235004,4.76E-11,,
,7.237004,4.75E-11,,
,7.239004,4.69E-11,,
,7.241004,4.70E-11,,
,7.243004,4.70E-11,,
,7.245004,4.73E-11,,
,7.247004,4.73E-11,,
,7.249004,4.71E-11,,
,7.251004,4.61E-11,,
,7.253004,4.51E-11,,
,7.255004,4.38E-11,,
,7.257004,4.31E-11,,
,7.259004,4.27E-11,,
,7.261004,4.24E-11,,
,7.263004,4.18E-11,,
,7.265004,4.10E-11,,
,7.267004,3.98E-11,,
,7.269004,3.82E-11,,
,7.271004,3.65E-11,,
,7.273004,3.51E-11,,
,7.275004,3.41E-11,,
,7.277004,3.35E-11,,
,7.279004,3.29E-11,,
,7.281004,3.21E-11,,
,7.283004,3.07E-11,,
,7.285004,2.89E-11,,
,7.287004,2.68E-11,,
,7.289004,2.52E-11,,
,7.291004,2.40E-11,,
,7.293004,2.32E-11,,
,7.295004,2.21E-11,,
,7.297004,2.08E-11,,
,7.299004,1.91E-11,,
,7.301004,1.73E-11,,
,7.303004,1.51E-11,,
,7.305004,1.35E-11,,
,7.307004,1.19E-11,,
,7.309004,1.10E-11,,
,7.311004,1.03E-11,,
,7.313004,9.53E-12,,
,7.315004,8.24E-12,,
,7.317004,6.31E-12,,
,7.319004,4.38E-12,,
,7.321004,2.55E-12,,
,7.323004,1.16E-12,,
,7.325004,8.20E-14,,
,7.327004,-7.77E-13,,
,7.329004,-1.53E-12,,
,7.331004,-2.49E-12,,
,7.333004,-4.10E-12,,
,7.335004,-5.93E-12,,
,7.337004,-7.75E-12,,
,7.339004,-8.83E-12,,
,7.341004,-9.69E-12,,
,7.343004,-1.01E-11,,
,7.345004,-1.08E-11,,
,7.347004,-1.14E-11,,
,7.349004,-1.24E-11,,
,7.351004,-1.37E-11,,
,7.353004,-1.51E-11,,
,7.355004,-1.66E-11,,
,7.357004,-1.73E-11,,
,7.359004,-1.78E-11,,
,7.361004,-1.81E-11,,
,7.363004,-1.85E-11,,
,7.365004,-1.90E-11,,
,7.367004,-2.01E-11,,
,7.369004,-2.15E-11,,
,7.371004,-2.29E-11,,
,7.373004,-2.38E-11,,
,7.375004,-2.44E-11,,
,7.377004,-2.46E-11,,
,7.379004,-2.45E-11,,
,7.381004,-2.47E-11,,
,7.383004,-2.55E-11,,
,7.385004,-2.64E-11,,
,7.387004,-2.73E-11,,
,7.389004,-2.79E-11,,
,7.391004,-2.84E-11,,
,7.393004,-2.84E-11,,
,7.395004,-2.82E-11,,
,7.397004,-2.82E-11,,
,7.399004,-2.83E-11,,
,7.401004,-2.88E-11,,
,7.403004,-2.94E-11,,
,7.405004,-3.02E-11,,
,7.407004,-3.03E-11,,
,7.409004,-3.01E-11,,
,7.411004,-2.94E-11,,
,7.413004,-2.90E-11,,
,7.415004,-2.90E-11,,
,7.417004,-2.94E-11,,
,7.419004,-3.00E-11,,
,7.421004,-3.02E-11,,
,7.423004,-3.01E-11,,
,7.425004,-2.97E-11,,
,7.427004,-2.90E-11,,
,7.429004,-2.84E-11,,
,7.431004,-2.78E-11,,
,7.433004,-2.77E-11,,
,7.435004,-2.79E-11,,
,7.437004,-2.84E-11,,
,7.439004,-2.84E-11,,
,7.441004,-2.80E-11,,
,7.443004,-2.72E-11,,
,7.445004,-2.65E-11,,
,7.447004,-2.57E-11,,
,7.449004,-2.53E-11,,
,7.451004,-2.51E-11,,
,7.453004,-2.56E-11,,
,7.455004,-2.55E-11,,
,7.457004,-2.48E-11,,
,7.459004,-2.39E-11,,
,7.461004,-2.31E-11,,
,7.463004,-2.22E-11,,
,7.465004,-2.15E-11,,
,7.467004,-2.10E-11,,
,7.469004,-2.09E-11,,
,7.471004,-2.07E-11,,
,7.473004,-2.02E-11,,
,7.475004,-1.96E-11,,
,7.477004,-1.85E-11,,
,7.479004,-1.74E-11,,
,7.481004,-1.62E-11,,
,7.483004,-1.55E-11,,
,7.485004,-1.49E-11,,
,7.487004,-1.43E-11,,
,7.489004,-1.36E-11,,
,7.491004,-1.28E-11,,
,7.493004,-1.19E-11,,
,7.495004,-1.08E-11,,
,7.497004,-9.79E-12,,
,7.499004,-9.04E-12,,
,7.501004,-8.61E-12,,
,7.503004,-8.08E-12,,
,7.505004,-7.33E-12,,
,7.507004,-6.14E-12,,
,7.509004,-4.96E-12,,
,7.511004,-3.89E-12,,
,7.513004,-2.82E-12,,
,7.515004,-1.85E-12,,
,7.517004,-1.10E-12,,
,7.519004,-6.69E-13,,
,7.521004,-2.53E-14,,
,7.523004,8.34E-13,,
,7.525004,1.80E-12,,
,7.527004,3.09E-12,,
,7.529004,4.16E-12,,
,7.531004,5.13E-12,,
,7.533004,5.77E-12,,
,7.535004,6.42E-12,,
,7.537004,6.95E-12,,
,7.539004,7.81E-12,,
,7.541004,8.67E-12,,
,7.543004,9.85E-12,,
,7.545004,1.07E-11,,
,7.547004,1.17E-11,,
,7.549004,1.23E-11,,
,7.551004,1.29E-11,,
,7.553004,1.35E-11,,
,7.555004,1.43E-11,,
,7.557004,1.50E-11,,
,7.559004,1.58E-11,,
,7.561004,1.66E-11,,
,7.563004,1.76E-11,,
,7.565004,1.84E-11,,
,7.567004,1.89E-11,,
,7.569004,1.91E-11,,
,7.571004,1.93E-11,,
,7.573004,1.99E-11,,
,7.575004,2.07E-11,,
,7.577004,2.14E-11,,
,7.579004,2.22E-11,,
,7.581004,2.28E-11,,
,7.583004,2.32E-11,,
,7.585004,2.35E-11,,
,7.587004,2.38E-11,,
,7.589004,2.42E-11,,
,7.591004,2.47E-11,,
,7.593004,2.51E-11,,
,7.595004,2.57E-11,,
,7.597004,2.60E-11,,
,7.599004,2.58E-11,,
,7.601004,2.56E-11,,
,7.603004,2.55E-11,,
,7.605004,2.57E-11,,
,7.607004,2.60E-11,,
,7.609004,2.63E-11,,
,7.611004,2.65E-11,,
,7.613004,2.66E-11,,
,7.615004,2.64E-11,,
,7.617004,2.61E-11,,
,7.619004,2.54E-11,,
,7.621004,2.53E-11,,
,7.623004,2.50E-11,,
,7.625004,2.51E-11,,
,7.627004,2.49E-11,,
,7.629004,2.50E-11,,
,7.631004,2.46E-11,,
,7.633004,2.38E-11,,
,7.635004,2.29E-11,,
,7.637004,2.23E-11,,
,7.639004,2.18E-11,,
,7.641004,2.12E-11,,
,7.643004,2.08E-11,,
,7.645004,2.05E-11,,
,7.647004,2.01E-11,,
,7.649004,1.95E-11,,
,7.651004,1.88E-11,,
,7.653004,1.78E-11,,
,7.655004,1.68E-11,,
,7.657004,1.59E-11,,
,7.659004,1.52E-11,,
,7.661004,1.46E-11,,
,7.663004,1.39E-11,,
,7.665004,1.30E-11,,
,7.667004,1.16E-11,,
,7.669004,1.02E-11,,
,7.671004,9.10E-12,,
,7.673004,8.46E-12,,
,7.675004,7.60E-12,,
,7.677004,6.74E-12,,
,7.679004,5.56E-12,,
,7.681004,4.70E-12,,
,7.683004,3.41E-12,,
,7.685004,2.23E-12,,
,7.687004,9.41E-13,,
,7.689004,-1.33E-13,,
,7.691004,-9.92E-13,,
,7.693004,-1.74E-12,,
,7.695004,-2.60E-12,,
,7.697004,-3.68E-12,,
,7.699004,-5.18E-12,,
,7.701004,-6.47E-12,,
,7.703004,-7.75E-12,,
,7.705004,-8.83E-12,,
,7.707004,-9.79E-12,,
,7.709004,-1.07E-11,,
,7.711004,-1.13E-11,,
,7.713004,-1.22E-11,,
,7.715004,-1.31E-11,,
,7.717004,-1.43E-11,,
,7.719004,-1.54E-11,,
,7.721004,-1.61E-11,,
,7.723004,-1.70E-11,,
,7.725004,-1.77E-11,,
,7.727004,-1.86E-11,,
,7.729004,-1.91E-11,,
,7.731004,-1.99E-11,,
,7.733004,-2.09E-11,,
,7.735004,-2.19E-11,,
,7.737004,-2.30E-11,,
,7.739004,-2.39E-11,,
,7.741004,-2.45E-11,,
,7.743004,-2.48E-11,,
,7.745004,-2.50E-11,,
,7.747004,-2.54E-11,,
,7.749004,-2.58E-11,,
,7.751004,-2.64E-11,,
,7.753004,-2.71E-11,,
,7.755004,-2.78E-11,,
,7.757004,-2.83E-11,,
,7.759004,-2.84E-11,,
,7.761004,-2.84E-11,,
,7.763004,-2.83E-11,,
,7.765004,-2.87E-11,,
,7.767004,-2.90E-11,,
,7.769004,-2.95E-11,,
,7.771004,-2.98E-11,,
,7.773004,-3.00E-11,,
,7.775004,-3.02E-11,,
,7.777004,-3.00E-11,,
,7.779004,-2.98E-11,,
,7.781004,-2.94E-11,,
,7.783004,-2.97E-11,,
,7.785004,-3.00E-11,,
,7.787004,-3.00E-11,,
,7.789004,-2.98E-11,,
,7.791004,-2.92E-11,,
,7.793004,-2.89E-11,,
,7.795004,-2.86E-11,,
,7.797004,-2.85E-11,,
,7.799004,-2.84E-11,,
,7.801004,-2.84E-11,,
,7.803004,-2.82E-11,,
,7.805004,-2.82E-11,,
,7.807004,-2.79E-11,,
,7.809004,-2.77E-11,,
,7.811004,-2.73E-11,,
,7.813004,-2.68E-11,,
,7.815004,-2.64E-11,,
,7.817004,-2.60E-11,,
,7.819004,-2.59E-11,,
,7.821004,-2.56E-11,,
,7.823004,-2.54E-11,,
,7.825004,-2.48E-11,,
,7.827004,-2.45E-11,,
,7.829004,-2.40E-11,,
,7.831004,-2.35E-11,,
,7.833004,-2.32E-11,,
,7.835004,-2.33E-11,,
,7.837004,-2.31E-11,,
,7.839004,-2.28E-11,,
,7.841004,-2.21E-11,,
,7.843004,-2.17E-11,,
,7.845004,-2.11E-11,,
,7.847004,-2.05E-11,,
,7.849004,-2.03E-11,,
,7.851004,-2.03E-11,,
,7.853004,-2.02E-11,,
,7.855004,-1.99E-11,,
,7.857004,-1.96E-11,,
,7.859004,-1.92E-11,,
,7.861004,-1.88E-11,,
,7.863004,-1.83E-11,,
,7.865004,-1.81E-11,,
,7.867004,-1.80E-11,,
,7.869004,-1.78E-11,,
,7.871004,-1.75E-11,,
,7.873004,-1.72E-11,,
,7.875004,-1.68E-11,,
,7.877004,-1.61E-11,,
,7.879004,-1.54E-11,,
,7.881004,-1.51E-11,,
,7.883004,-1.48E-11,,
,7.885004,-1.48E-11,,
,7.887004,-1.47E-11,,
,7.889004,-1.45E-11,,
,7.891004,-1.42E-11,,
,7.893004,-1.34E-11,,
,7.895004,-1.29E-11,,
,7.897004,-1.24E-11,,
,7.899004,-1.22E-11,,
,7.901004,-1.22E-11,,
,7.903004,-1.19E-11,,
,7.905004,-1.17E-11,,
,7.907004,-1.11E-11,,
,7.909004,-1.05E-11,,
,7.911004,-9.58E-12,,
,7.913004,-8.94E-12,,
,7.915004,-8.40E-12,,
,7.917004,-8.29E-12,,
,7.919004,-7.75E-12,,
,7.921004,-7.22E-12,,
,7.923004,-6.47E-12,,
,7.925004,-5.93E-12,,
,7.927004,-5.07E-12,,
,7.929004,-4.10E-12,,
,7.931004,-3.14E-12,,
,7.933004,-2.49E-12,,
,7.935004,-1.96E-12,,
,7.937004,-1.53E-12,,
,7.939004,-7.77E-13,,
,7.941004,1.89E-13,,
,7.943004,1.48E-12,,
,7.945004,2.66E-12,,
,7.947004,3.73E-12,,
,7.949004,4.48E-12,,
,7.951004,5.24E-12,,
,7.953004,5.99E-12,,
,7.955004,6.95E-12,,
,7.957004,7.70E-12,,
,7.959004,8.89E-12,,
,7.961004,9.96E-12,,
,7.963004,1.14E-11,,
,7.965004,1.20E-11,,
,7.967004,1.28E-11,,
,7.969004,1.33E-11,,
,7.971004,1.41E-11,,
,7.973004,1.50E-11,,
,7.975004,1.61E-11,,
,7.977004,1.72E-11,,
,7.979004,1.82E-11,,
,7.981004,1.90E-11,,
,7.983004,1.97E-11,,
,7.985004,2.03E-11,,
,7.987004,2.09E-11,,
,7.989004,2.12E-11,,
,7.991004,2.17E-11,,
,7.993004,2.22E-11,,
,7.995004,2.31E-11,,
,7.997004,2.38E-11,,
,7.999004,2.40E-11,,
,8.001004,2.41E-11,,
,8.003004,2.42E-11,,
,8.005004,2.46E-11,,
,8.007004,2.47E-11,,
,8.009004,2.48E-11,,
,8.011004,2.51E-11,,
,8.013004,2.54E-11,,
,8.015004,2.54E-11,,
,8.017004,2.53E-11,,
,8.019004,2.47E-11,,
,8.021004,2.43E-11,,
,8.023004,2.37E-11,,
,8.025004,2.38E-11,,
,8.027004,2.38E-11,,
,8.029004,2.38E-11,,
,8.031004,2.36E-11,,
,8.033004,2.31E-11,,
,8.035004,2.24E-11,,
,8.037004,2.18E-11,,
,8.039004,2.12E-11,,
,8.041004,2.08E-11,,
,8.043004,2.04E-11,,
,8.045004,1.98E-11,,
,8.047004,1.94E-11,,
,8.049004,1.85E-11,,
,8.051004,1.77E-11,,
,8.053004,1.64E-11,,
,8.055004,1.52E-11,,
,8.057004,1.43E-11,,
,8.059004,1.38E-11,,
,8.061004,1.36E-11,,
,8.063004,1.31E-11,,
,8.065004,1.21E-11,,
,8.067004,1.09E-11,,
,8.069004,9.53E-12,,
,8.071004,8.24E-12,,
,8.073004,6.95E-12,,
,8.075004,5.88E-12,,
,8.077004,5.13E-12,,
,8.079004,4.27E-12,,
,8.081004,3.41E-12,,
,8.083004,2.01E-12,,
,8.085004,7.26E-13,,
,8.087004,-4.55E-13,,
,8.089004,-1.53E-12,,
,8.091004,-2.49E-12,,
,8.093004,-3.46E-12,,
,8.095004,-4.43E-12,,
,8.097004,-5.50E-12,,
,8.099004,-6.90E-12,,
,8.101004,-8.29E-12,,
,8.103004,-9.79E-12,,
,8.105004,-1.10E-11,,
,8.107004,-1.20E-11,,
,8.109004,-1.30E-11,,
,8.111004,-1.42E-11,,
,8.113004,-1.52E-11,,
,8.115004,-1.61E-11,,
,8.117004,-1.72E-11,,
,8.119004,-1.87E-11,,
,8.121004,-2.00E-11,,
,8.123004,-2.12E-11,,
,8.125004,-2.19E-11,,
,8.127004,-2.28E-11,,
,8.129004,-2.35E-11,,
,8.131004,-2.46E-11,,
,8.133004,-2.59E-11,,
,8.135004,-2.72E-11,,
,8.137004,-2.83E-11,,
,8.139004,-2.91E-11,,
,8.141004,-3.00E-11,,
,8.143004,-3.04E-11,,
,8.145004,-3.08E-11,,
,8.147004,-3.12E-11,,
,8.149004,-3.20E-11,,
,8.151004,-3.30E-11,,
,8.153004,-3.36E-11,,
,8.155004,-3.42E-11,,
,8.157004,-3.44E-11,,
,8.159004,-3.47E-11,,
,8.161004,-3.49E-11,,
,8.163004,-3.50E-11,,
,8.165004,-3.55E-11,,
,8.167004,-3.58E-11,,
,8.169004,-3.64E-11,,
,8.171004,-3.64E-11,,
,8.173004,-3.64E-11,,
,8.175004,-3.61E-11,,
,8.177004,-3.60E-11,,
,8.179004,-3.57E-11,,
,8.181004,-3.53E-11,,
,8.183004,-3.51E-11,,
,8.185004,-3.52E-11,,
,8.187004,-3.52E-11,,
,8.189004,-3.48E-11,,
,8.191004,-3.44E-11,,
,8.193004,-3.36E-11,,
,8.195004,-3.30E-11,,
,8.197004,-3.22E-11,,
,8.199004,-3.19E-11,,
,8.201004,-3.15E-11,,
,8.203004,-3.09E-11,,
,8.205004,-3.03E-11,,
,8.207004,-2.95E-11,,
,8.209004,-2.85E-11,,
,8.211004,-2.72E-11,,
,8.213004,-2.62E-11,,
,8.215004,-2.54E-11,,
,8.217004,-2.47E-11,,
,8.219004,-2.40E-11,,
,8.221004,-2.31E-11,,
,8.223004,-2.19E-11,,
,8.225004,-2.06E-11,,
,8.227004,-1.90E-11,,
,8.229004,-1.76E-11,,
,8.231004,-1.63E-11,,
,8.233004,-1.56E-11,,
,8.235004,-1.49E-11,,
,8.237004,-1.40E-11,,
,8.239004,-1.29E-11,,
,8.241004,-1.16E-11,,
,8.243004,-1.03E-11,,
,8.245004,-8.94E-12,,
,8.247004,-7.65E-12,,
,8.249004,-6.68E-12,,
,8.251004,-5.82E-12,,
,8.253004,-5.29E-12,,
,8.255004,-4.43E-12,,
,8.257004,-3.57E-12,,
,8.259004,-1.85E-12,,
,8.261004,-5.62E-13,,
,8.263004,6.19E-13,,
,8.265004,1.48E-12,,
,8.267004,2.34E-12,,
,8.269004,2.98E-12,,
,8.271004,3.41E-12,,
,8.273004,4.05E-12,,
,8.275004,5.02E-12,,
,8.277004,5.99E-12,,
,8.279004,6.85E-12,,
,8.281004,7.60E-12,,
,8.283004,8.03E-12,,
,8.285004,8.67E-12,,
,8.287004,8.89E-12,,
,8.289004,9.42E-12,,
,8.291004,9.74E-12,,
,8.293004,1.05E-11,,
,8.295004,1.11E-11,,
,8.297004,1.15E-11,,
,8.299004,1.15E-11,,
,8.301004,1.12E-11,,
,8.303004,1.12E-11,,
,8.305004,1.14E-11,,
,8.307004,1.15E-11,,
,8.309004,1.17E-11,,
,8.311004,1.20E-11,,
,8.313004,1.22E-11,,
,8.315004,1.21E-11,,
,8.317004,1.18E-11,,
,8.319004,1.15E-11,,
,8.321004,1.12E-11,,
,8.323004,1.11E-11,,
,8.325004,1.09E-11,,
,8.327004,1.07E-11,,
,8.329004,1.06E-11,,
,8.331004,1.02E-11,,
,8.333004,9.74E-12,,
,8.335004,8.78E-12,,
,8.337004,8.46E-12,,
,8.339004,7.92E-12,,
,8.341004,7.70E-12,,
,8.343004,7.38E-12,,
,8.345004,7.38E-12,,
,8.347004,7.06E-12,,
,8.349004,6.52E-12,,
,8.351004,5.45E-12,,
,8.353004,4.59E-12,,
,8.355004,3.95E-12,,
,8.357004,3.73E-12,,
,8.359004,3.52E-12,,
,8.361004,3.09E-12,,
,8.363004,2.34E-12,,
,8.365004,1.80E-12,,
,8.367004,7.26E-13,,
,8.369004,-2.40E-13,,
,8.371004,-1.42E-12,,
,8.373004,-1.85E-12,,
,8.375004,-2.17E-12,,
,8.377004,-2.49E-12,,
,8.379004,-2.82E-12,,
,8.381004,-3.46E-12,,
,8.383004,-4.00E-12,,
,8.385004,-4.86E-12,,
,8.387004,-5.50E-12,,
,8.389004,-6.14E-12,,
,8.391004,-6.57E-12,,
,8.393004,-6.90E-12,,
,8.395004,-7.11E-12,,
,8.397004,-7.33E-12,,
,8.399004,-7.86E-12,,
,8.401004,-8.51E-12,,
,8.403004,-9.15E-12,,
,8.405004,-9.37E-12,,
,8.407004,-9.47E-12,,
,8.409004,-9.58E-12,,
,8.411004,-9.79E-12,,
,8.413004,-1.00E-11,,
,8.415004,-1.02E-11,,
,8.417004,-1.05E-11,,
,8.419004,-1.10E-11,,
,8.421004,-1.12E-11,,
,8.423004,-1.11E-11,,
,8.425004,-1.09E-11,,
,8.427004,-1.07E-11,,
,8.429004,-1.05E-11,,
,8.431004,-1.08E-11,,
,8.433004,-1.11E-11,,
,8.435004,-1.11E-11,,
,8.437004,-1.10E-11,,
,8.439004,-1.08E-11,,
,8.441004,-1.08E-11,,
,8.443004,-1.04E-11,,
,8.445004,-1.00E-11,,
,8.447004,-9.69E-12,,
,8.449004,-9.69E-12,,
,8.451004,-9.90E-12,,
,8.453004,-9.90E-12,,
,8.455004,-9.47E-12,,
,8.457004,-8.94E-12,,
,8.459004,-8.40E-12,,
,8.461004,-8.18E-12,,
,8.463004,-7.65E-12,,
,8.465004,-7.33E-12,,
,8.467004,-6.79E-12,,
,8.469004,-6.90E-12,,
,8.471004,-6.79E-12,,
,8.473004,-6.68E-12,,
,8.475004,-6.14E-12,,
,8.477004,-5.39E-12,,
,8.479004,-4.53E-12,,
,8.481004,-3.78E-12,,
,8.483004,-3.68E-12,,
,8.485004,-3.68E-12,,
,8.487004,-3.46E-12,,
,8.489004,-3.14E-12,,
,8.491004,-2.49E-12,,
,8.493004,-2.07E-12,,
,8.495004,-1.21E-12,,
,8.497004,-4.55E-13,,
,8.499004,-2.53E-14,,
,8.501004,8.20E-14,,
,8.503004,-1.33E-13,,
,8.505004,8.20E-14,,
,8.507004,6.19E-13,,
,8.509004,1.26E-12,,
,8.511004,2.12E-12,,
,8.513004,2.66E-12,,
,8.515004,3.20E-12,,
,8.517004,3.30E-12,,
,8.519004,3.30E-12,,
,8.521004,3.30E-12,,
,8.523004,3.52E-12,,
,8.525004,3.84E-12,,
,8.527004,4.59E-12,,
,8.529004,5.02E-12,,
,8.531004,5.34E-12,,
,8.533004,5.24E-12,,
,8.535004,5.02E-12,,
,8.537004,5.13E-12,,
,8.539004,5.24E-12,,
,8.541004,5.66E-12,,
,8.543004,6.20E-12,,
,8.545004,6.63E-12,,
,8.547004,6.95E-12,,
,8.549004,6.95E-12,,
,8.551004,6.52E-12,,
,8.553004,6.31E-12,,
,8.555004,5.99E-12,,
,8.557004,6.09E-12,,
,8.559004,6.20E-12,,
,8.561004,6.31E-12,,
,8.563004,6.52E-12,,
,8.565004,6.31E-12,,
,8.567004,6.09E-12,,
,8.569004,5.56E-12,,
,8.571004,5.34E-12,,
,8.573004,5.13E-12,,
,8.575004,5.13E-12,,
,8.577004,5.13E-12,,
,8.579004,5.02E-12,,
,8.581004,4.81E-12,,
,8.583004,4.16E-12,,
,8.585004,3.62E-12,,
,8.587004,3.09E-12,,
,8.589004,2.87E-12,,
,8.591004,2.66E-12,,
,8.593004,2.66E-12,,
,8.595004,2.44E-12,,
,8.597004,2.34E-12,,
,8.599004,1.69E-12,,
,8.601004,1.16E-12,,
,8.603004,2.97E-13,,
,8.605004,-2.40E-13,,
,8.607004,-6.69E-13,,
,8.609004,-7.77E-13,,
,8.611004,-9.92E-13,,
,8.613004,-1.31E-12,,
,8.615004,-1.64E-12,,
,8.617004,-2.17E-12,,
,8.619004,-2.71E-12,,
,8.621004,-3.46E-12,,
,8.623004,-3.78E-12,,
,8.625004,-4.00E-12,,
,8.627004,-4.32E-12,,
,8.629004,-4.64E-12,,
,8.631004,-5.07E-12,,
,8.633004,-5.39E-12,,
,8.635004,-6.04E-12,,
,8.637004,-6.90E-12,,
,8.639004,-7.65E-12,,
,8.641004,-7.97E-12,,
,8.643004,-7.97E-12,,
,8.645004,-7.97E-12,,
,8.647004,-8.29E-12,,
,8.649004,-8.51E-12,,
,8.651004,-8.94E-12,,
,8.653004,-9.37E-12,,
,8.655004,-1.01E-11,,
,8.657004,-1.07E-11,,
,8.659004,-1.09E-11,,
,8.661004,-1.10E-11,,
,8.663004,-1.09E-11,,
,8.665004,-1.12E-11,,
,8.667004,-1.17E-11,,
,8.669004,-1.25E-11,,
,8.671004,-1.30E-11,,
,8.673004,-1.32E-11,,
,8.675004,-1.32E-11,,
,8.677004,-1.31E-11,,
,8.679004,-1.31E-11,,
,8.681004,-1.37E-11,,
,8.683004,-1.45E-11,,
,8.685004,-1.53E-11,,
,8.687004,-1.56E-11,,
,8.689004,-1.56E-11,,
,8.691004,-1.54E-11,,
,8.693004,-1.52E-11,,
,8.695004,-1.49E-11,,
,8.697004,-1.52E-11,,
,8.699004,-1.55E-11,,
,8.701004,-1.60E-11,,
,8.703004,-1.62E-11,,
,8.705004,-1.65E-11,,
,8.707004,-1.62E-11,,
,8.709004,-1.60E-11,,
,8.711004,-1.57E-11,,
,8.713004,-1.56E-11,,
,8.715004,-1.56E-11,,
,8.717004,-1.57E-11,,
,8.719004,-1.59E-11,,
,8.721004,-1.61E-11,,
,8.723004,-1.60E-11,,
,8.725004,-1.57E-11,,
,8.727004,-1.49E-11,,
,8.729004,-1.45E-11,,
,8.731004,-1.41E-11,,
,8.733004,-1.42E-11,,
,8.735004,-1.42E-11,,
,8.737004,-1.43E-11,,
,8.739004,-1.40E-11,,
,8.741004,-1.34E-11,,
,8.743004,-1.28E-11,,
,8.745004,-1.22E-11,,
,8.747004,-1.17E-11,,
,8.749004,-1.14E-11,,
,8.751004,-1.14E-11,,
,8.753004,-1.11E-11,,
,8.755004,-1.07E-11,,
,8.757004,-1.00E-11,,
,8.759004,-9.37E-12,,
,8.761004,-8.61E-12,,
,8.763004,-7.75E-12,,
,8.765004,-7.43E-12,,
,8.767004,-7.11E-12,,
,8.769004,-7.11E-12,,
,8.771004,-6.68E-12,,
,8.773004,-6.04E-12,,
,8.775004,-5.29E-12,,
,8.777004,-4.43E-12,,
,8.779004,-3.78E-12,,
,8.781004,-3.14E-12,,
,8.783004,-2.92E-12,,
,8.785004,-2.71E-12,,
,8.787004,-2.39E-12,,
,8.789004,-1.64E-12,,
,8.791004,-8.84E-13,,
,8.793004,-1.33E-13,,
,8.795004,6.19E-13,,
,8.797004,1.26E-12,,
,8.799004,1.91E-12,,
,8.801004,2.12E-12,,
,8.803004,2.44E-12,,
,8.805004,2.66E-12,,
,8.807004,3.09E-12,,
,8.809004,3.52E-12,,
,8.811004,3.95E-12,,
,8.813004,4.70E-12,,
,8.815004,4.91E-12,,
,8.817004,5.13E-12,,
,8.819004,4.91E-12,,
,8.821004,5.13E-12,,
,8.823004,5.34E-12,,
,8.825004,5.88E-12,,
,8.827004,6.31E-12,,
,8.829004,6.95E-12,,
,8.831004,7.17E-12,,
,8.833004,7.06E-12,,
,8.835004,6.63E-12,,
,8.837004,6.31E-12,,
,8.839004,6.31E-12,,
,8.841004,6.52E-12,,
,8.843004,6.85E-12,,
,8.845004,7.06E-12,,
,8.847004,7.27E-12,,
,8.849004,7.06E-12,,
,8.851004,6.85E-12,,
,8.853004,6.31E-12,,
,8.855004,6.31E-12,,
,8.857004,6.31E-12,,
,8.859004,6.52E-12,,
,8.861004,6.52E-12,,
,8.863004,6.63E-12,,
,8.865004,6.42E-12,,
,8.867004,5.77E-12,,
,8.869004,5.13E-12,,
,8.871004,4.48E-12,,
,8.873004,4.16E-12,,
,8.875004,4.05E-12,,
,8.877004,4.27E-12,,
,8.879004,4.27E-12,,
,8.881004,3.84E-12,,
,8.883004,3.30E-12,,
,8.885004,2.55E-12,,
,8.887004,1.91E-12,,
,8.889004,1.26E-12,,
,8.891004,1.16E-12,,
,8.893004,1.05E-12,,
,8.895004,7.26E-13,,
,8.897004,2.97E-13,,
,8.899004,-2.40E-13,,
,8.901004,-7.77E-13,,
,8.903004,-1.53E-12,,
,8.905004,-2.07E-12,,
,8.907004,-2.49E-12,,
,8.909004,-2.60E-12,,
,8.911004,-2.60E-12,,
,8.913004,-2.92E-12,,
,8.915004,-3.57E-12,,
,8.917004,-4.43E-12,,
,8.919004,-5.29E-12,,
,8.921004,-5.61E-12,,
,8.923004,-6.14E-12,,
,8.925004,-6.14E-12,,
,8.927004,-6.25E-12,,
,8.929004,-6.14E-12,,
,8.931004,-6.47E-12,,
,8.933004,-7.33E-12,,
,8.935004,-8.18E-12,,
,8.937004,-8.83E-12,,
,8.939004,-9.15E-12,,
,8.941004,-9.37E-12,,
,8.943004,-9.37E-12,,
,8.945004,-9.26E-12,,
,8.947004,-9.47E-12,,
,8.949004,-1.01E-11,,
,8.951004,-1.10E-11,,
,8.953004,-1.16E-11,,
,8.955004,-1.20E-11,,
,8.957004,-1.20E-11,,
,8.959004,-1.18E-11,,
,8.961004,-1.14E-11,,
,8.963004,-1.14E-11,,
,8.965004,-1.17E-11,,
,8.967004,-1.25E-11,,
,8.969004,-1.30E-11,,
,8.971004,-1.34E-11,,
,8.973004,-1.36E-11,,
,8.975004,-1.32E-11,,
,8.977004,-1.30E-11,,
,8.979004,-1.26E-11,,
,8.981004,-1.28E-11,,
,8.983004,-1.27E-11,,
,8.985004,-1.29E-11,,
,8.987004,-1.29E-11,,
,8.989004,-1.28E-11,,
,8.991004,-1.24E-11,,
,8.993004,-1.18E-11,,
,8.995004,-1.12E-11,,
,8.997004,-1.09E-11,,
,8.999004,-1.07E-11,,
,9.001004,-1.09E-11,,
,9.003004,-1.09E-11,,
,9.005004,-1.07E-11,,
,9.007004,-1.01E-11,,
,9.009004,-9.69E-12,,
,9.011004,-9.15E-12,,
,9.013004,-8.72E-12,,
,9.015004,-8.51E-12,,
,9.017004,-8.40E-12,,
,9.019004,-8.18E-12,,
,9.021004,-7.75E-12,,
,9.023004,-7.43E-12,,
,9.025004,-6.90E-12,,
,9.027004,-6.14E-12,,
,9.029004,-5.18E-12,,
,9.031004,-4.64E-12,,
,9.033004,-4.43E-12,,
,9.035004,-4.53E-12,,
,9.037004,-4.32E-12,,
,9.039004,-4.00E-12,,
,9.041004,-3.25E-12,,
,9.043004,-2.71E-12,,
,9.045004,-1.85E-12,,
,9.047004,-1.42E-12,,
,9.049004,-1.10E-12,,
,9.051004,-8.84E-13,,
,9.053004,-5.62E-13,,
,9.055004,-2.40E-13,,
,9.057004,-2.53E-14,,
,9.059004,4.04E-13,,
,9.061004,9.41E-13,,
,9.063004,1.37E-12,,
,9.065004,1.69E-12,,
,9.067004,1.80E-12,,
,9.069004,1.80E-12,,
,9.071004,1.59E-12,,
,9.073004,1.69E-12,,
,9.075004,1.91E-12,,
,9.077004,2.55E-12,,
,9.079004,2.87E-12,,
,9.081004,2.98E-12,,
,9.083004,2.77E-12,,
,9.085004,2.34E-12,,
,9.087004,2.23E-12,,
,9.089004,2.12E-12,,
,9.091004,2.23E-12,,
,9.093004,2.44E-12,,
,9.095004,2.55E-12,,
,9.097004,2.66E-12,,
,9.099004,2.34E-12,,
,9.101004,1.91E-12,,
,9.103004,1.59E-12,,
,9.105004,1.37E-12,,
,9.107004,1.26E-12,,
,9.109004,1.16E-12,,
,9.111004,1.37E-12,,
,9.113004,1.37E-12,,
,9.115004,1.16E-12,,
,9.117004,5.11E-13,,
,9.119004,-1.33E-13,,
,9.121004,-7.77E-13,,
,9.123004,-1.21E-12,,
,9.125004,-1.42E-12,,
,9.127004,-1.42E-12,,
,9.129004,-1.64E-12,,
,9.131004,-1.85E-12,,
,9.133004,-2.49E-12,,
,9.135004,-3.35E-12,,
,9.137004,-4.21E-12,,
,9.139004,-4.75E-12,,
,9.141004,-4.86E-12,,
,9.143004,-5.07E-12,,
,9.145004,-5.07E-12,,
,9.147004,-5.29E-12,,
,9.149004,-5.72E-12,,
,9.151004,-6.57E-12,,
,9.153004,-7.33E-12,,
,9.155004,-7.86E-12,,
,9.157004,-7.97E-12,,
,9.159004,-8.18E-12,,
,9.161004,-8.40E-12,,
,9.163004,-8.83E-12,,
,9.165004,-9.26E-12,,
,9.167004,-9.90E-12,,
,9.169004,-1.07E-11,,
,9.171004,-1.12E-11,,
,9.173004,-1.15E-11,,
,9.175004,-1.17E-11,,
,9.177004,-1.19E-11,,
,9.179004,-1.19E-11,,
,9.181004,-1.18E-11,,
,9.183004,-1.20E-11,,
,9.185004,-1.26E-11,,
,9.187004,-1.31E-11,,
,9.189004,-1.33E-11,,
,9.191004,-1.33E-11,,
,9.193004,-1.31E-11,,
,9.195004,-1.28E-11,,
,9.197004,-1.28E-11,,
,9.199004,-1.32E-11,,
,9.201004,-1.39E-11,,
,9.203004,-1.41E-11,,
,9.205004,-1.43E-11,,
,9.207004,-1.42E-11,,
,9.209004,-1.42E-11,,
,9.211004,-1.38E-11,,
,9.213004,-1.36E-11,,
,9.215004,-1.36E-11,,
,9.217004,-1.38E-11,,
,9.219004,-1.42E-11,,
,9.221004,-1.40E-11,,
,9.223004,-1.39E-11,,
,9.225004,-1.33E-11,,
,9.227004,-1.32E-11,,
,9.229004,-1.28E-11,,
,9.231004,-1.26E-11,,
,9.233004,-1.27E-11,,
,9.235004,-1.30E-11,,
,9.237004,-1.33E-11,,
,9.239004,-1.31E-11,,
,9.241004,-1.29E-11,,
,9.243004,-1.23E-11,,
,9.245004,-1.19E-11,,
,9.247004,-1.14E-11,,
,9.249004,-1.14E-11,,
,9.251004,-1.16E-11,,
,9.253004,-1.17E-11,,
,9.255004,-1.17E-11,,
,9.257004,-1.10E-11,,
,9.259004,-1.07E-11,,
,9.261004,-1.01E-11,,
,9.263004,-9.79E-12,,
,9.265004,-9.47E-12,,
,9.267004,-9.47E-12,,
,9.269004,-9.58E-12,,
,9.271004,-9.58E-12,,
,9.273004,-9.26E-12,,
,9.275004,-8.83E-12,,
,9.277004,-8.29E-12,,
,9.279004,-7.86E-12,,
,9.281004,-7.65E-12,,
,9.283004,-7.75E-12,,
,9.285004,-7.75E-12,,
,9.287004,-7.54E-12,,
,9.289004,-6.90E-12,,
,9.291004,-6.47E-12,,
,9.293004,-5.93E-12,,
,9.295004,-5.39E-12,,
,9.297004,-4.96E-12,,
,9.299004,-4.75E-12,,
,9.301004,-4.86E-12,,
,9.303004,-4.64E-12,,
,9.305004,-4.53E-12,,
,9.307004,-4.00E-12,,
,9.309004,-3.46E-12,,
,9.311004,-2.82E-12,,
,9.313004,-2.17E-12,,
,9.315004,-1.74E-12,,
,9.317004,-1.53E-12,,
,9.319004,-1.53E-12,,
,9.321004,-1.31E-12,,
,9.323004,-7.77E-13,,
,9.325004,-2.53E-14,,
,9.327004,5.11E-13,,
,9.329004,9.41E-13,,
,9.331004,1.16E-12,,
,9.333004,1.16E-12,,
,9.335004,1.26E-12,,
,9.337004,1.26E-12,,
,9.339004,1.69E-12,,
,9.341004,1.91E-12,,
,9.343004,2.44E-12,,
,9.345004,2.66E-12,,
,9.347004,3.09E-12,,
,9.349004,3.09E-12,,
,9.351004,3.20E-12,,
,9.353004,2.87E-12,,
,9.355004,2.87E-12,,
,9.357004,3.09E-12,,
,9.359004,3.62E-12,,
,9.361004,4.05E-12,,
,9.363004,4.27E-12,,
,9.365004,4.27E-12,,
,9.367004,3.95E-12,,
,9.369004,3.52E-12,,
,9.371004,3.30E-12,,
,9.373004,3.41E-12,,
,9.375004,3.62E-12,,
,9.377004,3.95E-12,,
,9.379004,4.16E-12,,
,9.381004,4.16E-12,,
,9.383004,3.84E-12,,
,9.385004,3.41E-12,,
,9.387004,3.30E-12,,
,9.389004,3.20E-12,,
,9.391004,3.30E-12,,
,9.393004,3.52E-12,,
,9.395004,3.62E-12,,
,9.397004,3.73E-12,,
,9.399004,3.30E-12,,
,9.401004,3.09E-12,,
,9.403004,2.66E-12,,
,9.405004,2.77E-12,,
,9.407004,2.98E-12,,
,9.409004,3.20E-12,,
,9.411004,3.30E-12,,
,9.413004,3.30E-12,,
,9.415004,3.41E-12,,
,9.417004,3.20E-12,,
,9.419004,3.09E-12,,
,9.421004,2.87E-12,,
,9.423004,2.87E-12,,
,9.425004,2.98E-12,,
,9.427004,3.30E-12,,
,9.429004,3.73E-12,,
,9.431004,3.62E-12,,
,9.433004,3.20E-12,,
,9.435004,2.77E-12,,
,9.437004,2.55E-12,,
,9.439004,2.55E-12,,
,9.441004,2.44E-12,,
,9.443004,2.77E-12,,
,9.445004,3.20E-12,,
,9.447004,3.30E-12,,
,9.449004,2.98E-12,,
,9.451004,2.55E-12,,
,9.453004,2.34E-12,,
,9.455004,2.44E-12,,
,9.457004,2.55E-12,,
,9.459004,2.87E-12,,
,9.461004,2.98E-12,,
,9.463004,3.20E-12,,
,9.465004,3.20E-12,,
,9.467004,2.98E-12,,
,9.469004,2.66E-12,,
,9.471004,2.44E-12,,
,9.473004,2.55E-12,,
,9.475004,2.66E-12,,
,9.477004,2.87E-12,,
,9.479004,3.30E-12,,
,9.481004,3.52E-12,,
,9.483004,3.52E-12,,
,9.485004,2.98E-12,,
,9.487004,2.77E-12,,
,9.489004,2.77E-12,,
,9.491004,2.98E-12,,
,9.493004,3.20E-12,,
,9.495004,3.41E-12,,
,9.497004,3.62E-12,,
,9.499004,3.30E-12,,
,9.501004,2.77E-12,,
,9.503004,2.23E-12,,
,9.505004,2.12E-12,,
,9.507004,2.23E-12,,
,9.509004,2.34E-12,,
,9.511004,2.77E-12,,
,9.513004,2.77E-12,,
,9.515004,2.77E-12,,
,9.517004,2.23E-12,,
,9.519004,2.01E-12,,
,9.521004,1.80E-12,,
,9.523004,1.91E-12,,
,9.525004,1.91E-12,,
,9.527004,1.69E-12,,
,9.529004,1.59E-12,,
,9.531004,1.26E-12,,
,9.533004,1.05E-12,,
,9.535004,4.04E-13,,
,9.537004,8.20E-14,,
,9.539004,-4.55E-13,,
,9.541004,-6.69E-13,,
,9.543004,-8.84E-13,,
,9.545004,-6.69E-13,,
,9.547004,-8.84E-13,,
,9.549004,-1.42E-12,,
,9.551004,-2.17E-12,,
,9.553004,-2.92E-12,,
,9.555004,-3.25E-12,,
,9.557004,-3.57E-12,,
,9.559004,-3.35E-12,,
,9.561004,-3.68E-12,,
,9.563004,-4.10E-12,,
,9.565004,-4.86E-12,,
,9.567004,-5.72E-12,,
,9.569004,-6.47E-12,,
,9.571004,-6.90E-12,,
,9.573004,-7.11E-12,,
,9.575004,-7.11E-12,,
,9.577004,-7.43E-12,,
,9.579004,-7.86E-12,,
,9.581004,-8.61E-12,,
,9.583004,-9.58E-12,,
,9.585004,-1.01E-11,,
,9.587004,-1.05E-11,,
,9.589004,-1.09E-11,,
,9.591004,-1.12E-11,,
,9.593004,-1.17E-11,,
,9.595004,-1.19E-11,,
,9.597004,-1.24E-11,,
,9.599004,-1.28E-11,,
,9.601004,-1.37E-11,,
,9.603004,-1.45E-11,,
,9.605004,-1.51E-11,,
,9.607004,-1.54E-11,,
,9.609004,-1.55E-11,,
,9.611004,-1.57E-11,,
,9.613004,-1.58E-11,,
,9.615004,-1.62E-11,,
,9.617004,-1.69E-11,,
,9.619004,-1.74E-11,,
,9.621004,-1.78E-11,,
,9.623004,-1.80E-11,,
,9.625004,-1.82E-11,,
,9.627004,-1.80E-11,,
,9.629004,-1.77E-11,,
,9.631004,-1.78E-11,,
,9.633004,-1.83E-11,,
,9.635004,-1.88E-11,,
,9.637004,-1.90E-11,,
,9.639004,-1.91E-11,,
,9.641004,-1.88E-11,,
,9.643004,-1.86E-11,,
,9.645004,-1.84E-11,,
,9.647004,-1.83E-11,,
,9.649004,-1.85E-11,,
,9.651004,-1.85E-11,,
,9.653004,-1.87E-11,,
,9.655004,-1.84E-11,,
,9.657004,-1.82E-11,,
,9.659004,-1.75E-11,,
,9.661004,-1.71E-11,,
,9.663004,-1.67E-11,,
,9.665004,-1.68E-11,,
,9.667004,-1.69E-11,,
,9.669004,-1.69E-11,,
,9.671004,-1.66E-11,,
,9.673004,-1.60E-11,,
,9.675004,-1.55E-11,,
,9.677004,-1.49E-11,,
,9.679004,-1.43E-11,,
,9.681004,-1.39E-11,,
,9.683004,-1.38E-11,,
,9.685004,-1.37E-11,,
,9.687004,-1.33E-11,,
,9.689004,-1.27E-11,,
,9.691004,-1.20E-11,,
,9.693004,-1.13E-11,,
,9.695004,-1.07E-11,,
,9.697004,-1.00E-11,,
,9.699004,-9.69E-12,,
,9.701004,-9.47E-12,,
,9.703004,-9.37E-12,,
,9.705004,-8.83E-12,,
,9.707004,-7.97E-12,,
,9.709004,-7.11E-12,,
,9.711004,-6.36E-12,,
,9.713004,-5.61E-12,,
,9.715004,-4.96E-12,,
,9.717004,-4.86E-12,,
,9.719004,-4.64E-12,,
,9.721004,-4.32E-12,,
,9.723004,-3.35E-12,,
,9.725004,-2.49E-12,,
,9.727004,-1.53E-12,,
,9.729004,-5.62E-13,,
,9.731004,1.89E-13,,
,9.733004,8.34E-13,,
,9.735004,9.41E-13,,
,9.737004,1.37E-12,,
,9.739004,1.80E-12,,
,9.741004,2.66E-12,,
,9.743004,3.30E-12,,
,9.745004,4.38E-12,,
,9.747004,5.02E-12,,
,9.749004,5.77E-12,,
,9.751004,5.99E-12,,
,9.753004,6.42E-12,,
,9.755004,6.85E-12,,
,9.757004,7.49E-12,,
,9.759004,8.46E-12,,
,9.761004,9.10E-12,,
,9.763004,9.74E-12,,
,9.765004,1.01E-11,,
,9.767004,1.03E-11,,
,9.769004,1.07E-11,,
,9.771004,1.10E-11,,
,9.773004,1.15E-11,,
,9.775004,1.19E-11,,
,9.777004,1.26E-11,,
,9.779004,1.35E-11,,
,9.781004,1.37E-11,,
,9.783004,1.37E-11,,
,9.785004,1.36E-11,,
,9.787004,1.36E-11,,
,9.789004,1.38E-11,,
,9.791004,1.43E-11,,
,9.793004,1.48E-11,,
,9.795004,1.53E-11,,
,9.797004,1.55E-11,,
,9.799004,1.56E-11,,
,9.801004,1.54E-11,,
,9.803004,1.53E-11,,
,9.805004,1.54E-11,,
,9.807004,1.54E-11,,
,9.809004,1.54E-11,,
,9.811004,1.58E-11,,
,9.813004,1.61E-11,,
,9.815004,1.61E-11,,
,9.817004,1.53E-11,,
,9.819004,1.46E-11,,
,9.821004,1.43E-11,,
,9.823004,1.45E-11,,
,9.825004,1.48E-11,,
,9.827004,1.49E-11,,
,9.829004,1.49E-11,,
,9.831004,1.46E-11,,
,9.833004,1.41E-11,,
,9.835004,1.33E-11,,
,9.837004,1.28E-11,,
,9.839004,1.22E-11,,
,9.841004,1.22E-11,,
,9.843004,1.20E-11,,
,9.845004,1.19E-11,,
,9.847004,1.15E-11,,
,9.849004,1.09E-11,,
,9.851004,1.03E-11,,
,9.853004,9.85E-12,,
,9.855004,9.42E-12,,
,9.857004,9.10E-12,,
,9.859004,8.78E-12,,
,9.861004,8.67E-12,,
,9.863004,8.67E-12,,
,9.865004,8.03E-12,,
,9.867004,7.06E-12,,
,9.869004,5.99E-12,,
,9.871004,5.24E-12,,
,9.873004,4.91E-12,,
,9.875004,4.48E-12,,
,9.877004,4.38E-12,,
,9.879004,4.05E-12,,
,9.881004,3.62E-12,,
,9.883004,2.98E-12,,
,9.885004,2.01E-12,,
,9.887004,1.48E-12,,
,9.889004,7.26E-13,,
,9.891004,5.11E-13,,
,9.893004,8.20E-14,,
,9.895004,-2.40E-13,,
,9.897004,-7.77E-13,,
,9.899004,-1.31E-12,,
,9.901004,-2.07E-12,,
,9.903004,-2.60E-12,,
,9.905004,-3.35E-12,,
,9.907004,-3.68E-12,,
,9.909004,-4.00E-12,,
,9.911004,-4.00E-12,,
,9.913004,-4.00E-12,,
,9.915004,-4.43E-12,,
,9.917004,-5.18E-12,,
,9.919004,-6.04E-12,,
,9.921004,-6.47E-12,,
,9.923004,-6.57E-12,,
,9.925004,-6.36E-12,,
,9.927004,-6.47E-12,,
,9.929004,-6.79E-12,,
,9.931004,-7.33E-12,,
,9.933004,-7.97E-12,,
,9.935004,-8.40E-12,,
,9.937004,-9.04E-12,,
,9.939004,-9.15E-12,,
,9.941004,-9.47E-12,,
,9.943004,-9.47E-12,,
,9.945004,-9.58E-12,,
,9.947004,-9.47E-12,,
,9.949004,-9.69E-12,,
,9.951004,-1.00E-11,,
,9.953004,-1.04E-11,,
,9.955004,-1.08E-11,,
,9.957004,-1.09E-11,,
,9.959004,-1.09E-11,,
,9.961004,-1.07E-11,,
,9.963004,-1.05E-11,,
,9.965004,-1.07E-11,,
,9.967004,-1.12E-11,,
,9.969004,-1.17E-11,,
,9.971004,-1.20E-11,,
,9.973004,-1.20E-11,,
,9.975004,-1.19E-11,,
,9.977004,-1.19E-11,,
,9.979004,-1.18E-11,,
,9.981004,-1.19E-11,,
,9.983004,-1.20E-11,,
,9.985004,-1.25E-11,,
,9.987004,-1.28E-11,,
,9.989004,-1.31E-11,,
,9.991004,-1.29E-11,,
,9.993004,-1.26E-11,,
,9.995004,-1.20E-11,,
,9.997004,-1.18E-11,,
,9.999004,-1.20E-11,,
,10.001004,-1.24E-11,,
,10.003004,-1.27E-11,,
,10.005004,-1.29E-11,,
,10.007004,-1.29E-11,,
,10.009004,-1.27E-11,,
,10.011004,-1.23E-11,,
,10.013004,-1.19E-11,,
,10.015004,-1.19E-11,,
,10.017004,-1.22E-11,,
,10.019004,-1.23E-11,,
,10.021004,-1.24E-11,,
,10.023004,-1.20E-11,,
,10.025004,-1.17E-11,,
,10.027004,-1.12E-11,,
,10.029004,-1.08E-11,,
,10.031004,-1.07E-11,,
,10.033004,-1.09E-11,,
,10.035004,-1.11E-11,,
,10.037004,-1.13E-11,,
,10.039004,-1.12E-11,,
,10.041004,-1.09E-11,,
,10.043004,-1.04E-11,,
,10.045004,-9.69E-12,,
,10.047004,-9.58E-12,,
,10.049004,-9.69E-12,,
,10.051004,-1.01E-11,,
,10.053004,-1.01E-11,,
,10.055004,-9.58E-12,,
,10.057004,-9.15E-12,,
,10.059004,-8.40E-12,,
,10.061004,-7.97E-12,,
,10.063004,-7.43E-12,,
,10.065004,-7.54E-12,,
,10.067004,-7.65E-12,,
,10.069004,-7.65E-12,,
,10.071004,-7.43E-12,,
,10.073004,-7.00E-12,,
,10.075004,-6.79E-12,,
,10.077004,-6.25E-12,,
,10.079004,-5.93E-12,,
,10.081004,-5.39E-12,,
,10.083004,-5.29E-12,,
,10.085004,-5.07E-12,,
,10.087004,-5.07E-12,,
,10.089004,-4.75E-12,,
,10.091004,-4.32E-12,,
,10.093004,-3.57E-12,,
,10.095004,-2.82E-12,,
,10.097004,-2.39E-12,,
,10.099004,-2.39E-12,,
,10.101004,-2.49E-12,,
,10.103004,-2.49E-12,,
,10.105004,-2.28E-12,,
,10.107004,-1.96E-12,,
,10.109004,-1.10E-12,,
,10.111004,-3.47E-13,,
,10.113004,1.89E-13,,
,10.115004,1.89E-13,,
,10.117004,8.20E-14,,
,10.119004,1.89E-13,,
,10.121004,2.97E-13,,
,10.123004,8.34E-13,,
,10.125004,1.37E-12,,
,10.127004,2.12E-12,,
,10.129004,2.66E-12,,
,10.131004,2.87E-12,,
,10.133004,2.87E-12,,
,10.135004,2.66E-12,,
,10.137004,2.66E-12,,
,10.139004,2.55E-12,,
,10.141004,2.98E-12,,
,10.143004,3.62E-12,,
,10.145004,4.48E-12,,
,10.147004,4.70E-12,,
,10.149004,4.70E-12,,
,10.151004,4.27E-12,,
,10.153004,4.05E-12,,
,10.155004,3.95E-12,,
,10.157004,4.27E-12,,
,10.159004,4.91E-12,,
,10.161004,5.34E-12,,
,10.163004,5.77E-12,,
,10.165004,5.66E-12,,
,10.167004,5.34E-12,,
,10.169004,5.13E-12,,
,10.171004,5.02E-12,,
,10.173004,5.34E-12,,
,10.175004,5.56E-12,,
,10.177004,5.88E-12,,
,10.179004,5.99E-12,,
,10.181004,6.09E-12,,
,10.183004,5.99E-12,,
,10.185004,5.99E-12,,
,10.187004,5.66E-12,,
,10.189004,5.99E-12,,
,10.191004,6.31E-12,,
,10.193004,6.95E-12,,
,10.195004,7.06E-12,,
,10.197004,7.17E-12,,
,10.199004,6.95E-12,,
,10.201004,6.74E-12,,
,10.203004,6.52E-12,,
,10.205004,6.52E-12,,
,10.207004,6.85E-12,,
,10.209004,7.06E-12,,
,10.211004,7.27E-12,,
,10.213004,7.27E-12,,
,10.215004,7.17E-12,,
,10.217004,6.85E-12,,
,10.219004,6.52E-12,,
,10.221004,6.20E-12,,
,10.223004,6.31E-12,,
,10.225004,6.42E-12,,
,10.227004,6.63E-12,,
,10.229004,6.85E-12,,
,10.231004,6.63E-12,,
,10.233004,6.31E-12,,
,10.235004,5.66E-12,,
,10.237004,5.45E-12,,
,10.239004,5.13E-12,,
,10.241004,5.02E-12,,
,10.243004,4.81E-12,,
,10.245004,4.59E-12,,
,10.247004,4.48E-12,,
,10.249004,4.16E-12,,
,10.251004,3.95E-12,,
,10.253004,3.30E-12,,
,10.255004,3.30E-12,,
,10.257004,3.20E-12,,
,10.259004,3.30E-12,,
,10.261004,3.09E-12,,
,10.263004,2.98E-12,,
,10.265004,2.66E-12,,
,10.267004,2.12E-12,,
,10.269004,1.59E-12,,
,10.271004,1.16E-12,,
,10.273004,8.34E-13,,
,10.275004,4.04E-13,,
,10.277004,8.20E-14,,
,10.279004,-2.40E-13,,
,10.281004,-6.69E-13,,
,10.283004,-1.31E-12,,
,10.285004,-1.96E-12,,
,10.287004,-2.39E-12,,
,10.289004,-2.71E-12,,
,10.291004,-3.03E-12,,
,10.293004,-3.25E-12,,
,10.295004,-3.57E-12,,
,10.297004,-3.78E-12,,
,10.299004,-4.32E-12,,
,10.301004,-4.75E-12,,
,10.303004,-5.18E-12,,
,10.305004,-5.72E-12,,
,10.307004,-6.25E-12,,
,10.309004,-6.90E-12,,
,10.311004,-7.22E-12,,
,10.313004,-7.65E-12,,
,10.315004,-8.08E-12,,
,10.317004,-8.72E-12,,
,10.319004,-9.26E-12,,
,10.321004,-9.58E-12,,
,10.323004,-9.90E-12,,
,10.325004,-1.01E-11,,
,10.327004,-1.05E-11,,
,10.329004,-1.08E-11,,
,10.331004,-1.11E-11,,
,10.333004,-1.18E-11,,
,10.335004,-1.24E-11,,
,10.337004,-1.30E-11,,
,10.339004,-1.31E-11,,
,10.341004,-1.34E-11,,
,10.343004,-1.36E-11,,
,10.345004,-1.38E-11,,
,10.347004,-1.41E-11,,
,10.349004,-1.46E-11,,
,10.351004,-1.51E-11,,
,10.353004,-1.56E-11,,
,10.355004,-1.60E-11,,
,10.357004,-1.62E-11,,
,10.359004,-1.61E-11,,
,10.361004,-1.58E-11,,
,10.363004,-1.60E-11,,
,10.365004,-1.63E-11,,
,10.367004,-1.70E-11,,
,10.369004,-1.74E-11,,
,10.371004,-1.80E-11,,
,10.373004,-1.80E-11,,
,10.375004,-1.76E-11,,
,10.377004,-1.73E-11,,
,10.379004,-1.73E-11,,
,10.381004,-1.75E-11,,
,10.383004,-1.76E-11,,
,10.385004,-1.78E-11,,
,10.387004,-1.82E-11,,
,10.389004,-1.83E-11,,
,10.391004,-1.81E-11,,
,10.393004,-1.76E-11,,
,10.395004,-1.72E-11,,
,10.397004,-1.72E-11,,
,10.399004,-1.74E-11,,
,10.401004,-1.76E-11,,
,10.403004,-1.77E-11,,
,10.405004,-1.76E-11,,
,10.407004,-1.76E-11,,
,10.409004,-1.71E-11,,
,10.411004,-1.67E-11,,
,10.413004,-1.61E-11,,
,10.415004,-1.62E-11,,
,10.417004,-1.61E-11,,
,10.419004,-1.61E-11,,
,10.421004,-1.60E-11,,
,10.423004,-1.59E-11,,
,10.425004,-1.58E-11,,
,10.427004,-1.52E-11,,
,10.429004,-1.47E-11,,
,10.431004,-1.44E-11,,
,10.433004,-1.46E-11,,
,10.435004,-1.47E-11,,
,10.437004,-1.46E-11,,
,10.439004,-1.44E-11,,
,10.441004,-1.42E-11,,
,10.443004,-1.40E-11,,
,10.445004,-1.38E-11,,
,10.447004,-1.39E-11,,
,10.449004,-1.38E-11,,
,10.451004,-1.37E-11,,
,10.453004,-1.32E-11,,
,10.455004,-1.31E-11,,
,10.457004,-1.29E-11,,
,10.459004,-1.27E-11,,
,10.461004,-1.24E-11,,
,10.463004,-1.22E-11,,
,10.465004,-1.22E-11,,
,10.467004,-1.24E-11,,
,10.469004,-1.26E-11,,
,10.471004,-1.27E-11,,
,10.473004,-1.28E-11,,
,10.475004,-1.27E-11,,
,10.477004,-1.26E-11,,
,10.479004,-1.23E-11,,
,10.481004,-1.25E-11,,
,10.483004,-1.24E-11,,
,10.485004,-1.25E-11,,
,10.487004,-1.23E-11,,
,10.489004,-1.23E-11,,
,10.491004,-1.20E-11,,
,10.493004,-1.18E-11,,
,10.495004,-1.16E-11,,
,10.497004,-1.14E-11,,
,10.499004,-1.14E-11,,
,10.501004,-1.16E-11,,
,10.503004,-1.19E-11,,
,10.505004,-1.19E-11,,
,10.507004,-1.18E-11,,
,10.509004,-1.17E-11,,
,10.511004,-1.17E-11,,
,10.513004,-1.16E-11,,
,10.515004,-1.16E-11,,
,10.517004,-1.15E-11,,
,10.519004,-1.17E-11,,
,10.521004,-1.16E-11,,
,10.523004,-1.16E-11,,
,10.525004,-1.14E-11,,
,10.527004,-1.10E-11,,
,10.529004,-1.09E-11,,
,10.531004,-1.07E-11,,
,10.533004,-1.10E-11,,
,10.535004,-1.10E-11,,
,10.537004,-1.10E-11,,
,10.539004,-1.10E-11,,
,10.541004,-1.09E-11,,
,10.543004,-1.07E-11,,
,10.545004,-1.03E-11,,
,10.547004,-1.02E-11,,
,10.549004,-1.04E-11,,
,10.551004,-1.07E-11,,
,10.553004,-1.07E-11,,
,10.555004,-1.05E-11,,
,10.557004,-1.03E-11,,
,10.559004,-1.01E-11,,
,10.561004,-9.79E-12,,
,10.563004,-9.58E-12,,
,10.565004,-9.47E-12,,
,10.567004,-9.58E-12,,
,10.569004,-9.90E-12,,
,10.571004,-1.00E-11,,
,10.573004,-1.00E-11,,
,10.575004,-9.58E-12,,
,10.577004,-9.47E-12,,
,10.579004,-9.04E-12,,
,10.581004,-8.94E-12,,
,10.583004,-8.61E-12,,
,10.585004,-8.51E-12,,
,10.587004,-8.51E-12,,
,10.589004,-8.40E-12,,
,10.591004,-8.40E-12,,
,10.593004,-7.86E-12,,
,10.595004,-7.54E-12,,
,10.597004,-7.11E-12,,
,10.599004,-6.90E-12,,
,10.601004,-6.57E-12,,
,10.603004,-6.36E-12,,
,10.605004,-6.25E-12,,
,10.607004,-6.04E-12,,
,10.609004,-5.72E-12,,
,10.611004,-5.39E-12,,
,10.613004,-5.18E-12,,
,10.615004,-5.07E-12,,
,10.617004,-5.07E-12,,
,10.619004,-4.96E-12,,
,10.621004,-4.53E-12,,
,10.623004,-4.10E-12,,
,10.625004,-3.57E-12,,
,10.627004,-3.14E-12,,
,10.629004,-2.49E-12,,
,10.631004,-2.07E-12,,
,10.633004,-1.96E-12,,
,10.635004,-2.07E-12,,
,10.637004,-2.17E-12,,
,10.639004,-2.07E-12,,
,10.641004,-1.53E-12,,
,10.643004,-9.92E-13,,
,10.645004,-5.62E-13,,
,10.647004,-3.47E-13,,
,10.649004,-4.55E-13,,
,10.651004,-5.62E-13,,
,10.653004,-5.62E-13,,
,10.655004,-1.33E-13,,
,10.657004,2.97E-13,,
,10.659004,6.19E-13,,
,10.661004,7.26E-13,,
,10.663004,1.05E-12,,
,10.665004,1.26E-12,,
,10.667004,1.37E-12,,
,10.669004,1.48E-12,,
,10.671004,1.59E-12,,
,10.673004,1.91E-12,,
,10.675004,2.01E-12,,
,10.677004,2.44E-12,,
,10.679004,2.77E-12,,
,10.681004,2.98E-12,,
,10.683004,2.77E-12,,
,10.685004,2.44E-12,,
,10.687004,2.44E-12,,
,10.689004,2.77E-12,,
,10.691004,3.30E-12,,
,10.693004,3.73E-12,,
,10.695004,3.84E-12,,
,10.697004,3.84E-12,,
,10.699004,3.62E-12,,
,10.701004,3.62E-12,,
,10.703004,3.41E-12,,
,10.705004,3.30E-12,,
,10.707004,3.20E-12,,
,10.709004,3.41E-12,,
,10.711004,3.62E-12,,
,10.713004,3.84E-12,,
,10.715004,3.52E-12,,
,10.717004,2.87E-12,,
,10.719004,2.44E-12,,
,10.721004,2.23E-12,,
,10.723004,2.34E-12,,
,10.725004,2.12E-12,,
,10.727004,2.12E-12,,
,10.729004,2.12E-12,,
,10.731004,1.91E-12,,
,10.733004,1.48E-12,,
,10.735004,7.26E-13,,
,10.737004,1.89E-13,,
,10.739004,-2.40E-13,,
,10.741004,-3.47E-13,,
,10.743004,-7.77E-13,,
,10.745004,-9.92E-13,,
,10.747004,-1.53E-12,,
,10.749004,-2.07E-12,,
,10.751004,-2.92E-12,,
,10.753004,-3.68E-12,,
,10.755004,-4.21E-12,,
,10.757004,-4.75E-12,,
,10.759004,-5.07E-12,,
,10.761004,-5.29E-12,,
,10.763004,-5.50E-12,,
,10.765004,-5.93E-12,,
,10.767004,-7.00E-12,,
,10.769004,-8.08E-12,,
,10.771004,-9.15E-12,,
,10.773004,-9.37E-12,,
,10.775004,-9.47E-12,,
,10.777004,-9.47E-12,,
,10.779004,-9.90E-12,,
,10.781004,-1.03E-11,,
,10.783004,-1.10E-11,,
,10.785004,-1.18E-11,,
,10.787004,-1.28E-11,,
,10.789004,-1.33E-11,,
,10.791004,-1.33E-11,,
,10.793004,-1.31E-11,,
,10.795004,-1.31E-11,,
,10.797004,-1.32E-11,,
,10.799004,-1.37E-11,,
,10.801004,-1.43E-11,,
,10.803004,-1.48E-11,,
,10.805004,-1.51E-11,,
,10.807004,-1.52E-11,,
,10.809004,-1.54E-11,,
,10.811004,-1.54E-11,,
,10.813004,-1.53E-11,,
,10.815004,-1.55E-11,,
,10.817004,-1.59E-11,,
,10.819004,-1.65E-11,,
,10.821004,-1.67E-11,,
,10.823004,-1.69E-11,,
,10.825004,-1.66E-11,,
,10.827004,-1.61E-11,,
,10.829004,-1.57E-11,,
,10.831004,-1.57E-11,,
,10.833004,-1.61E-11,,
,10.835004,-1.65E-11,,
,10.837004,-1.68E-11,,
,10.839004,-1.67E-11,,
,10.841004,-1.67E-11,,
,10.843004,-1.61E-11,,
,10.845004,-1.57E-11,,
,10.847004,-1.53E-11,,
,10.849004,-1.54E-11,,
,10.851004,-1.58E-11,,
,10.853004,-1.60E-11,,
,10.855004,-1.60E-11,,
,10.857004,-1.55E-11,,
,10.859004,-1.51E-11,,
,10.861004,-1.45E-11,,
,10.863004,-1.41E-11,,
,10.865004,-1.41E-11,,
,10.867004,-1.43E-11,,
,10.869004,-1.47E-11,,
,10.871004,-1.46E-11,,
,10.873004,-1.43E-11,,
,10.875004,-1.40E-11,,
,10.877004,-1.34E-11,,
,10.879004,-1.30E-11,,
,10.881004,-1.28E-11,,
,10.883004,-1.30E-11,,
,10.885004,-1.34E-11,,
,10.887004,-1.34E-11,,
,10.889004,-1.33E-11,,
,10.891004,-1.30E-11,,
,10.893004,-1.25E-11,,
,10.895004,-1.20E-11,,
,10.897004,-1.17E-11,,
,10.899004,-1.18E-11,,
,10.901004,-1.19E-11,,
,10.903004,-1.24E-11,,
,10.905004,-1.25E-11,,
,10.907004,-1.25E-11,,
,10.909004,-1.18E-11,,
,10.911004,-1.14E-11,,
,10.913004,-1.10E-11,,
,10.915004,-1.10E-11,,
,10.917004,-1.14E-11,,
,10.919004,-1.17E-11,,
,10.921004,-1.20E-11,,
,10.923004,-1.17E-11,,
,10.925004,-1.15E-11,,
,10.927004,-1.11E-11,,
,10.929004,-1.08E-11,,
,10.931004,-1.05E-11,,
,10.933004,-1.05E-11,,
,10.935004,-1.10E-11,,
,10.937004,-1.12E-11,,
,10.939004,-1.13E-11,,
,10.941004,-1.09E-11,,
,10.943004,-1.05E-11,,
,10.945004,-1.02E-11,,
,10.947004,-1.00E-11,,
,10.949004,-1.00E-11,,
,10.951004,-1.03E-11,,
,10.953004,-1.08E-11,,
,10.955004,-1.09E-11,,
,10.957004,-1.05E-11,,
,10.959004,-1.00E-11,,
,10.961004,-9.58E-12,,
,10.963004,-9.26E-12,,
,10.965004,-9.37E-12,,
,10.967004,-9.47E-12,,
,10.969004,-9.90E-12,,
,10.971004,-9.90E-12,,
,10.973004,-9.90E-12,,
,10.975004,-9.47E-12,,
,10.977004,-9.15E-12,,
,10.979004,-8.94E-12,,
,10.981004,-8.83E-12,,
,10.983004,-9.04E-12,,
,10.985004,-9.26E-12,,
,10.987004,-9.37E-12,,
,10.989004,-9.26E-12,,
,10.991004,-8.83E-12,,
,10.993004,-8.29E-12,,
,10.995004,-7.75E-12,,
,10.997004,-7.65E-12,,
,10.999004,-7.86E-12,,
,11.001004,-8.29E-12,,
,11.003004,-8.29E-12,,
,11.005004,-8.29E-12,,
,11.007004,-7.97E-12,,
,11.009004,-7.54E-12,,
,11.011004,-6.79E-12,,
,11.013004,-6.25E-12,,
,11.015004,-6.14E-12,,
,11.017004,-6.36E-12,,
,11.019004,-6.47E-12,,
,11.021004,-6.47E-12,,
,11.023004,-6.14E-12,,
,11.025004,-5.72E-12,,
,11.027004,-5.29E-12,,
,11.029004,-4.64E-12,,
,11.031004,-4.32E-12,,
,11.033004,-4.21E-12,,
,11.035004,-4.64E-12,,
,11.037004,-4.53E-12,,
,11.039004,-4.43E-12,,
,11.041004,-4.00E-12,,
,11.043004,-3.57E-12,,
