5/15/2019, 4:48:55 PM ,,,
 Current Sensitivity ,1.00E-09,,,
 This file comes from It only measurement ,0.00E+00,,,
 Sampling rate ,500,,,
 Number of samples per channel ,-1,,,
 No filter from Labview , , , ,
 , ,,,
 ***End_of_Header*** ,,,,
 , Time , Current , Filtered Current , 
,0.000999,-1.01E-11,,
,0.002999,-2.02E-11,,
,0.004999,-3.00E-11,,
,0.006999,-2.93E-11,,
,0.008999,-2.85E-11,,
,0.010999,-2.80E-11,,
,0.012999,-2.82E-11,,
,0.014999,-2.90E-11,,
,0.016999,-3.02E-11,,
,0.018999,-3.14E-11,,
,0.020999,-3.20E-11,,
,0.022999,-3.20E-11,,
,0.024999,-3.16E-11,,
,0.026999,-3.12E-11,,
,0.028999,-3.14E-11,,
,0.030999,-3.23E-11,,
,0.032999,-3.38E-11,,
,0.034999,-3.55E-11,,
,0.036999,-3.66E-11,,
,0.038999,-3.72E-11,,
,0.040999,-3.70E-11,,
,0.042999,-3.64E-11,,
,0.044999,-3.63E-11,,
,0.046999,-3.66E-11,,
,0.048999,-3.78E-11,,
,0.050999,-3.92E-11,,
,0.052999,-4.02E-11,,
,0.054999,-4.07E-11,,
,0.056999,-4.04E-11,,
,0.058999,-3.96E-11,,
,0.060999,-3.85E-11,,
,0.062999,-3.80E-11,,
,0.064999,-3.86E-11,,
,0.066999,-3.94E-11,,
,0.068999,-3.99E-11,,
,0.070999,-3.95E-11,,
,0.072999,-3.87E-11,,
,0.074999,-3.74E-11,,
,0.076999,-3.55E-11,,
,0.078999,-3.42E-11,,
,0.080999,-3.35E-11,,
,0.082999,-3.37E-11,,
,0.084999,-3.36E-11,,
,0.086999,-3.30E-11,,
,0.088999,-3.19E-11,,
,0.090999,-3.03E-11,,
,0.092999,-2.87E-11,,
,0.094999,-2.72E-11,,
,0.096999,-2.65E-11,,
,0.098999,-2.66E-11,,
,0.100999,-2.73E-11,,
,0.102999,-2.75E-11,,
,0.104999,-2.73E-11,,
,0.106999,-2.65E-11,,
,0.108999,-2.56E-11,,
,0.110999,-2.47E-11,,
,0.112999,-2.48E-11,,
,0.114999,-2.61E-11,,
,0.116999,-2.82E-11,,
,0.118999,-2.99E-11,,
,0.120999,-3.12E-11,,
,0.122999,-3.17E-11,,
,0.124999,-3.21E-11,,
,0.126999,-3.27E-11,,
,0.128999,-3.35E-11,,
,0.130999,-3.53E-11,,
,0.132999,-3.77E-11,,
,0.134999,-4.07E-11,,
,0.136999,-4.30E-11,,
,0.138999,-4.47E-11,,
,0.140999,-4.57E-11,,
,0.142999,-4.64E-11,,
,0.144999,-4.76E-11,,
,0.146999,-4.93E-11,,
,0.148999,-5.19E-11,,
,0.150999,-5.46E-11,,
,0.152999,-5.70E-11,,
,0.154999,-5.87E-11,,
,0.156999,-5.97E-11,,
,0.158999,-6.01E-11,,
,0.160999,-6.09E-11,,
,0.162999,-6.20E-11,,
,0.164999,-6.36E-11,,
,0.166999,-6.56E-11,,
,0.168999,-6.73E-11,,
,0.170999,-6.84E-11,,
,0.172999,-6.85E-11,,
,0.174999,-6.79E-11,,
,0.176999,-6.73E-11,,
,0.178999,-6.68E-11,,
,0.180999,-6.73E-11,,
,0.182999,-6.83E-11,,
,0.184999,-6.93E-11,,
,0.186999,-6.93E-11,,
,0.188999,-6.83E-11,,
,0.190999,-6.68E-11,,
,0.192999,-6.50E-11,,
,0.194999,-6.35E-11,,
,0.196999,-6.25E-11,,
,0.198999,-6.19E-11,,
,0.200999,-6.13E-11,,
,0.202999,-6.01E-11,,
,0.204999,-5.84E-11,,
,0.206999,-5.59E-11,,
,0.208999,-5.30E-11,,
,0.210999,-5.01E-11,,
,0.212999,-4.76E-11,,
,0.214999,-4.57E-11,,
,0.216999,-4.44E-11,,
,0.218999,-4.29E-11,,
,0.220999,-4.06E-11,,
,0.222999,-3.75E-11,,
,0.224999,-3.38E-11,,
,0.226999,-3.02E-11,,
,0.228999,-2.69E-11,,
,0.230999,-2.45E-11,,
,0.232999,-2.30E-11,,
,0.234999,-2.15E-11,,
,0.236999,-1.92E-11,,
,0.238999,-1.65E-11,,
,0.240999,-1.31E-11,,
,0.242999,-9.79E-12,,
,0.244999,-6.47E-12,,
,0.246999,-4.32E-12,,
,0.248999,-2.82E-12,,
,0.250999,-1.64E-12,,
,0.252999,-2.53E-14,,
,0.254999,2.23E-12,,
,0.256999,4.91E-12,,
,0.258999,8.13E-12,,
,0.260999,1.06E-11,,
,0.262999,1.28E-11,,
,0.264999,1.36E-11,,
,0.266999,1.46E-11,,
,0.268999,1.53E-11,,
,0.270999,1.66E-11,,
,0.272999,1.84E-11,,
,0.274999,2.05E-11,,
,0.276999,2.29E-11,,
,0.278999,2.47E-11,,
,0.280999,2.56E-11,,
,0.282999,2.54E-11,,
,0.284999,2.53E-11,,
,0.286999,2.56E-11,,
,0.288999,2.68E-11,,
,0.290999,2.80E-11,,
,0.292999,2.95E-11,,
,0.294999,3.05E-11,,
,0.296999,3.10E-11,,
,0.298999,3.04E-11,,
,0.300999,2.93E-11,,
,0.302999,2.81E-11,,
,0.304999,2.76E-11,,
,0.306999,2.79E-11,,
,0.308999,2.85E-11,,
,0.310999,2.87E-11,,
,0.312999,2.79E-11,,
,0.314999,2.63E-11,,
,0.316999,2.42E-11,,
,0.318999,2.22E-11,,
,0.320999,2.05E-11,,
,0.322999,1.92E-11,,
,0.324999,1.87E-11,,
,0.326999,1.78E-11,,
,0.328999,1.66E-11,,
,0.330999,1.43E-11,,
,0.332999,1.12E-11,,
,0.334999,7.92E-12,,
,0.336999,4.81E-12,,
,0.338999,2.55E-12,,
,0.340999,6.19E-13,,
,0.342999,-9.92E-13,,
,0.344999,-3.35E-12,,
,0.346999,-6.25E-12,,
,0.348999,-1.00E-11,,
,0.350999,-1.42E-11,,
,0.352999,-1.83E-11,,
,0.354999,-2.18E-11,,
,0.356999,-2.47E-11,,
,0.358999,-2.72E-11,,
,0.360999,-3.00E-11,,
,0.362999,-3.34E-11,,
,0.364999,-3.78E-11,,
,0.366999,-4.26E-11,,
,0.368999,-4.73E-11,,
,0.370999,-5.14E-11,,
,0.372999,-5.53E-11,,
,0.374999,-5.86E-11,,
,0.376999,-6.21E-11,,
,0.378999,-6.56E-11,,
,0.380999,-7.00E-11,,
,0.382999,-7.50E-11,,
,0.384999,-8.01E-11,,
,0.386999,-8.49E-11,,
,0.388999,-8.90E-11,,
,0.390999,-9.25E-11,,
,0.392999,-9.57E-11,,
,0.394999,-9.91E-11,,
,0.396999,-1.03E-10,,
,0.398999,-1.08E-10,,
,0.400999,-1.13E-10,,
,0.402999,-1.18E-10,,
,0.404999,-1.22E-10,,
,0.406999,-1.26E-10,,
,0.408999,-1.29E-10,,
,0.410999,-1.32E-10,,
,0.412999,-1.35E-10,,
,0.414999,-1.39E-10,,
,0.416999,-1.44E-10,,
,0.418999,-1.48E-10,,
,0.420999,-1.52E-10,,
,0.422999,-1.55E-10,,
,0.424999,-1.58E-10,,
,0.426999,-1.61E-10,,
,0.428999,-1.63E-10,,
,0.430999,-1.67E-10,,
,0.432999,-1.71E-10,,
,0.434999,-1.75E-10,,
,0.436999,-1.78E-10,,
,0.438999,-1.81E-10,,
,0.440999,-1.83E-10,,
,0.442999,-1.84E-10,,
,0.444999,-1.86E-10,,
,0.446999,-1.89E-10,,
,0.448999,-1.92E-10,,
,0.450999,-1.94E-10,,
,0.452999,-1.97E-10,,
,0.454999,-1.99E-10,,
,0.456999,-1.99E-10,,
,0.458999,-2.00E-10,,
,0.460999,-2.01E-10,,
,0.462999,-2.01E-10,,
,0.464999,-2.03E-10,,
,0.466999,-2.05E-10,,
,0.468999,-2.07E-10,,
,0.470999,-2.08E-10,,
,0.472999,-2.08E-10,,
,0.474999,-2.08E-10,,
,0.476999,-2.07E-10,,
,0.478999,-2.07E-10,,
,0.480999,-2.07E-10,,
,0.482999,-2.09E-10,,
,0.484999,-2.10E-10,,
,0.486999,-2.10E-10,,
,0.488999,-2.10E-10,,
,0.490999,-2.09E-10,,
,0.492999,-2.08E-10,,
,0.494999,-2.07E-10,,
,0.496999,-2.07E-10,,
,0.498999,-2.07E-10,,
,0.500999,-2.08E-10,,
,0.502999,-2.08E-10,,
,0.504999,-2.08E-10,,
,0.506999,-2.07E-10,,
,0.508999,-2.05E-10,,
,0.510999,-2.04E-10,,
,0.512999,-2.03E-10,,
,0.514999,-2.03E-10,,
,0.516999,-2.03E-10,,
,0.518999,-2.03E-10,,
,0.520999,-2.03E-10,,
,0.522999,-2.02E-10,,
,0.524999,-2.01E-10,,
,0.526999,-1.99E-10,,
,0.528999,-1.99E-10,,
,0.530999,-1.98E-10,,
,0.532999,-1.99E-10,,
,0.534999,-1.99E-10,,
,0.536999,-1.99E-10,,
,0.538999,-1.99E-10,,
,0.540999,-1.98E-10,,
,0.542999,-1.96E-10,,
,0.544999,-1.95E-10,,
,0.546999,-1.95E-10,,
,0.548999,-1.95E-10,,
,0.550999,-1.96E-10,,
,0.552999,-1.97E-10,,
,0.554999,-1.96E-10,,
,0.556999,-1.95E-10,,
,0.558999,-1.94E-10,,
,0.560999,-1.93E-10,,
,0.562999,-1.92E-10,,
,0.564999,-1.92E-10,,
,0.566999,-1.93E-10,,
,0.568999,-1.93E-10,,
,0.570999,-1.92E-10,,
,0.572999,-1.91E-10,,
,0.574999,-1.90E-10,,
,0.576999,-1.88E-10,,
,0.578999,-1.87E-10,,
,0.580999,-1.86E-10,,
,0.582999,-1.86E-10,,
,0.584999,-1.86E-10,,
,0.586999,-1.86E-10,,
,0.588999,-1.84E-10,,
,0.590999,-1.83E-10,,
,0.592999,-1.80E-10,,
,0.594999,-1.78E-10,,
,0.596999,-1.76E-10,,
,0.598999,-1.75E-10,,
,0.600999,-1.75E-10,,
,0.602999,-1.74E-10,,
,0.604999,-1.72E-10,,
,0.606999,-1.69E-10,,
,0.608999,-1.66E-10,,
,0.610999,-1.63E-10,,
,0.612999,-1.61E-10,,
,0.614999,-1.59E-10,,
,0.616999,-1.58E-10,,
,0.618999,-1.56E-10,,
,0.620999,-1.54E-10,,
,0.622999,-1.52E-10,,
,0.624999,-1.48E-10,,
,0.626999,-1.45E-10,,
,0.628999,-1.42E-10,,
,0.630999,-1.39E-10,,
,0.632999,-1.37E-10,,
,0.634999,-1.36E-10,,
,0.636999,-1.34E-10,,
,0.638999,-1.31E-10,,
,0.640999,-1.28E-10,,
,0.642999,-1.25E-10,,
,0.644999,-1.21E-10,,
,0.646999,-1.19E-10,,
,0.648999,-1.17E-10,,
,0.650999,-1.16E-10,,
,0.652999,-1.14E-10,,
,0.654999,-1.12E-10,,
,0.656999,-1.08E-10,,
,0.658999,-1.04E-10,,
,0.660999,-1.01E-10,,
,0.662999,-9.78E-11,,
,0.664999,-9.59E-11,,
,0.666999,-9.41E-11,,
,0.668999,-9.26E-11,,
,0.670999,-9.01E-11,,
,0.672999,-8.72E-11,,
,0.674999,-8.35E-11,,
,0.676999,-7.99E-11,,
,0.678999,-7.66E-11,,
,0.680999,-7.40E-11,,
,0.682999,-7.20E-11,,
,0.684999,-7.02E-11,,
,0.686999,-6.81E-11,,
,0.688999,-6.54E-11,,
,0.690999,-6.22E-11,,
,0.692999,-5.84E-11,,
,0.694999,-5.50E-11,,
,0.696999,-5.21E-11,,
,0.698999,-5.06E-11,,
,0.700999,-4.93E-11,,
,0.702999,-4.78E-11,,
,0.704999,-4.57E-11,,
,0.706999,-4.28E-11,,
,0.708999,-4.00E-11,,
,0.710999,-3.68E-11,,
,0.712999,-3.47E-11,,
,0.714999,-3.30E-11,,
,0.716999,-3.22E-11,,
,0.718999,-3.14E-11,,
,0.720999,-3.02E-11,,
,0.722999,-2.83E-11,,
,0.724999,-2.59E-11,,
,0.726999,-2.33E-11,,
,0.728999,-2.15E-11,,
,0.730999,-2.04E-11,,
,0.732999,-2.03E-11,,
,0.734999,-2.01E-11,,
,0.736999,-1.97E-11,,
,0.738999,-1.86E-11,,
,0.740999,-1.71E-11,,
,0.742999,-1.53E-11,,
,0.744999,-1.37E-11,,
,0.746999,-1.28E-11,,
,0.748999,-1.28E-11,,
,0.750999,-1.33E-11,,
,0.752999,-1.33E-11,,
,0.754999,-1.27E-11,,
,0.756999,-1.13E-11,,
,0.758999,-1.01E-11,,
,0.760999,-8.94E-12,,
,0.762999,-8.29E-12,,
,0.764999,-8.18E-12,,
,0.766999,-8.72E-12,,
,0.768999,-9.15E-12,,
,0.770999,-9.15E-12,,
,0.772999,-8.51E-12,,
,0.774999,-7.54E-12,,
,0.776999,-6.36E-12,,
,0.778999,-5.61E-12,,
,0.780999,-5.72E-12,,
,0.782999,-6.68E-12,,
,0.784999,-7.65E-12,,
,0.786999,-8.29E-12,,
,0.788999,-8.29E-12,,
,0.790999,-7.75E-12,,
,0.792999,-7.11E-12,,
,0.794999,-6.57E-12,,
,0.796999,-7.11E-12,,
,0.798999,-8.18E-12,,
,0.800999,-9.58E-12,,
,0.802999,-1.05E-11,,
,0.804999,-1.10E-11,,
,0.806999,-1.10E-11,,
,0.808999,-1.05E-11,,
,0.810999,-1.04E-11,,
,0.812999,-1.08E-11,,
,0.814999,-1.20E-11,,
,0.816999,-1.38E-11,,
,0.818999,-1.55E-11,,
,0.820999,-1.68E-11,,
,0.822999,-1.73E-11,,
,0.824999,-1.73E-11,,
,0.826999,-1.70E-11,,
,0.828999,-1.72E-11,,
,0.830999,-1.82E-11,,
,0.832999,-2.00E-11,,
,0.834999,-2.15E-11,,
,0.836999,-2.28E-11,,
,0.838999,-2.31E-11,,
,0.840999,-2.33E-11,,
,0.842999,-2.32E-11,,
,0.844999,-2.35E-11,,
,0.846999,-2.44E-11,,
,0.848999,-2.60E-11,,
,0.850999,-2.79E-11,,
,0.852999,-2.95E-11,,
,0.854999,-3.05E-11,,
,0.856999,-3.09E-11,,
,0.858999,-3.08E-11,,
,0.860999,-3.08E-11,,
,0.862999,-3.14E-11,,
,0.864999,-3.29E-11,,
,0.866999,-3.50E-11,,
,0.868999,-3.70E-11,,
,0.870999,-3.85E-11,,
,0.872999,-3.89E-11,,
,0.874999,-3.91E-11,,
,0.876999,-3.92E-11,,
,0.878999,-3.97E-11,,
,0.880999,-4.08E-11,,
,0.882999,-4.25E-11,,
,0.884999,-4.44E-11,,
,0.886999,-4.60E-11,,
,0.888999,-4.67E-11,,
,0.890999,-4.70E-11,,
,0.892999,-4.70E-11,,
,0.894999,-4.72E-11,,
,0.896999,-4.78E-11,,
,0.898999,-4.90E-11,,
,0.900999,-5.07E-11,,
,0.902999,-5.24E-11,,
,0.904999,-5.34E-11,,
,0.906999,-5.36E-11,,
,0.908999,-5.33E-11,,
,0.910999,-5.32E-11,,
,0.912999,-5.35E-11,,
,0.914999,-5.43E-11,,
,0.916999,-5.57E-11,,
,0.918999,-5.72E-11,,
,0.920999,-5.83E-11,,
,0.922999,-5.83E-11,,
,0.924999,-5.77E-11,,
,0.926999,-5.68E-11,,
,0.928999,-5.64E-11,,
,0.930999,-5.66E-11,,
,0.932999,-5.75E-11,,
,0.934999,-5.87E-11,,
,0.936999,-5.94E-11,,
,0.938999,-5.93E-11,,
,0.940999,-5.82E-11,,
,0.942999,-5.70E-11,,
,0.944999,-5.63E-11,,
,0.946999,-5.62E-11,,
,0.948999,-5.67E-11,,
,0.950999,-5.70E-11,,
,0.952999,-5.72E-11,,
,0.954999,-5.69E-11,,
,0.956999,-5.60E-11,,
,0.958999,-5.46E-11,,
,0.960999,-5.31E-11,,
,0.962999,-5.22E-11,,
,0.964999,-5.22E-11,,
,0.966999,-5.28E-11,,
,0.968999,-5.34E-11,,
,0.970999,-5.32E-11,,
,0.972999,-5.22E-11,,
,0.974999,-5.09E-11,,
,0.976999,-4.97E-11,,
,0.978999,-4.92E-11,,
,0.980999,-4.94E-11,,
,0.982999,-5.04E-11,,
,0.984999,-5.13E-11,,
,0.986999,-5.21E-11,,
,0.988999,-5.22E-11,,
,0.990999,-5.22E-11,,
,0.992999,-5.20E-11,,
,0.994999,-5.22E-11,,
,0.996999,-5.31E-11,,
,0.998999,-5.50E-11,,
,1.000999,-5.70E-11,,
,1.002999,-5.89E-11,,
,1.004999,-6.03E-11,,
,1.006999,-6.14E-11,,
,1.008999,-6.23E-11,,
,1.010999,-6.34E-11,,
,1.012999,-6.48E-11,,
,1.014999,-6.70E-11,,
,1.016999,-6.97E-11,,
,1.018999,-7.28E-11,,
,1.020999,-7.55E-11,,
,1.022999,-7.73E-11,,
,1.024999,-7.87E-11,,
,1.026999,-8.01E-11,,
,1.028999,-8.22E-11,,
,1.030999,-8.47E-11,,
,1.032999,-8.83E-11,,
,1.034999,-9.17E-11,,
,1.036999,-9.50E-11,,
,1.038999,-9.72E-11,,
,1.040999,-9.92E-11,,
,1.042999,-1.01E-10,,
,1.044999,-1.03E-10,,
,1.046999,-1.06E-10,,
,1.048999,-1.09E-10,,
,1.050999,-1.12E-10,,
,1.052999,-1.16E-10,,
,1.054999,-1.19E-10,,
,1.056999,-1.21E-10,,
,1.058999,-1.23E-10,,
,1.060999,-1.24E-10,,
,1.062999,-1.27E-10,,
,1.064999,-1.30E-10,,
,1.066999,-1.33E-10,,
,1.068999,-1.36E-10,,
,1.070999,-1.39E-10,,
,1.072999,-1.41E-10,,
,1.074999,-1.43E-10,,
,1.076999,-1.44E-10,,
,1.078999,-1.45E-10,,
,1.080999,-1.48E-10,,
,1.082999,-1.50E-10,,
,1.084999,-1.53E-10,,
,1.086999,-1.55E-10,,
,1.088999,-1.57E-10,,
,1.090999,-1.58E-10,,
,1.092999,-1.58E-10,,
,1.094999,-1.59E-10,,
,1.096999,-1.60E-10,,
,1.098999,-1.61E-10,,
,1.100999,-1.63E-10,,
,1.102999,-1.65E-10,,
,1.104999,-1.65E-10,,
,1.106999,-1.65E-10,,
,1.108999,-1.65E-10,,
,1.110999,-1.64E-10,,
,1.112999,-1.65E-10,,
,1.114999,-1.65E-10,,
,1.116999,-1.66E-10,,
,1.118999,-1.67E-10,,
,1.120999,-1.67E-10,,
,1.122999,-1.66E-10,,
,1.124999,-1.65E-10,,
,1.126999,-1.64E-10,,
,1.128999,-1.62E-10,,
,1.130999,-1.62E-10,,
,1.132999,-1.62E-10,,
,1.134999,-1.62E-10,,
,1.136999,-1.62E-10,,
,1.138999,-1.60E-10,,
,1.140999,-1.59E-10,,
,1.142999,-1.56E-10,,
,1.144999,-1.54E-10,,
,1.146999,-1.53E-10,,
,1.148999,-1.52E-10,,
,1.150999,-1.52E-10,,
,1.152999,-1.51E-10,,
,1.154999,-1.49E-10,,
,1.156999,-1.46E-10,,
,1.158999,-1.43E-10,,
,1.160999,-1.40E-10,,
,1.162999,-1.37E-10,,
,1.164999,-1.35E-10,,
,1.166999,-1.34E-10,,
,1.168999,-1.33E-10,,
,1.170999,-1.31E-10,,
,1.172999,-1.28E-10,,
,1.174999,-1.24E-10,,
,1.176999,-1.20E-10,,
,1.178999,-1.17E-10,,
,1.180999,-1.14E-10,,
,1.182999,-1.13E-10,,
,1.184999,-1.10E-10,,
,1.186999,-1.08E-10,,
,1.188999,-1.05E-10,,
,1.190999,-1.01E-10,,
,1.192999,-9.73E-11,,
,1.194999,-9.37E-11,,
,1.196999,-9.04E-11,,
,1.198999,-8.81E-11,,
,1.200999,-8.60E-11,,
,1.202999,-8.41E-11,,
,1.204999,-8.14E-11,,
,1.206999,-7.79E-11,,
,1.208999,-7.41E-11,,
,1.210999,-7.01E-11,,
,1.212999,-6.69E-11,,
,1.214999,-6.43E-11,,
,1.216999,-6.27E-11,,
,1.218999,-6.08E-11,,
,1.220999,-5.87E-11,,
,1.222999,-5.57E-11,,
,1.224999,-5.28E-11,,
,1.226999,-4.95E-11,,
,1.228999,-4.70E-11,,
,1.230999,-4.50E-11,,
,1.232999,-4.37E-11,,
,1.234999,-4.25E-11,,
,1.236999,-4.11E-11,,
,1.238999,-3.93E-11,,
,1.240999,-3.70E-11,,
,1.242999,-3.47E-11,,
,1.244999,-3.23E-11,,
,1.246999,-3.09E-11,,
,1.248999,-3.03E-11,,
,1.250999,-3.03E-11,,
,1.252999,-3.01E-11,,
,1.254999,-2.92E-11,,
,1.256999,-2.79E-11,,
,1.258999,-2.62E-11,,
,1.260999,-2.46E-11,,
,1.262999,-2.35E-11,,
,1.264999,-2.34E-11,,
,1.266999,-2.40E-11,,
,1.268999,-2.46E-11,,
,1.270999,-2.48E-11,,
,1.272999,-2.45E-11,,
,1.274999,-2.36E-11,,
,1.276999,-2.27E-11,,
,1.278999,-2.17E-11,,
,1.280999,-2.19E-11,,
,1.282999,-2.29E-11,,
,1.284999,-2.43E-11,,
,1.286999,-2.49E-11,,
,1.288999,-2.47E-11,,
,1.290999,-2.41E-11,,
,1.292999,-2.34E-11,,
,1.294999,-2.30E-11,,
,1.296999,-2.32E-11,,
,1.298999,-2.38E-11,,
,1.300999,-2.48E-11,,
,1.302999,-2.54E-11,,
,1.304999,-2.56E-11,,
,1.306999,-2.48E-11,,
,1.308999,-2.39E-11,,
,1.310999,-2.26E-11,,
,1.312999,-2.21E-11,,
,1.314999,-2.22E-11,,
,1.316999,-2.32E-11,,
,1.318999,-2.36E-11,,
,1.320999,-2.34E-11,,
,1.322999,-2.25E-11,,
,1.324999,-2.11E-11,,
,1.326999,-1.97E-11,,
,1.328999,-1.83E-11,,
,1.330999,-1.74E-11,,
,1.332999,-1.72E-11,,
,1.334999,-1.72E-11,,
,1.336999,-1.69E-11,,
,1.338999,-1.56E-11,,
,1.340999,-1.37E-11,,
,1.342999,-1.13E-11,,
,1.344999,-9.15E-12,,
,1.346999,-7.65E-12,,
,1.348999,-6.68E-12,,
,1.350999,-6.04E-12,,
,1.352999,-4.96E-12,,
,1.354999,-3.46E-12,,
,1.356999,-1.31E-12,,
,1.358999,1.26E-12,,
,1.360999,3.84E-12,,
,1.362999,5.99E-12,,
,1.364999,7.49E-12,,
,1.366999,8.35E-12,,
,1.368999,9.31E-12,,
,1.370999,1.09E-11,,
,1.372999,1.33E-11,,
,1.374999,1.61E-11,,
,1.376999,1.87E-11,,
,1.378999,2.10E-11,,
,1.380999,2.28E-11,,
,1.382999,2.39E-11,,
,1.384999,2.46E-11,,
,1.386999,2.53E-11,,
,1.388999,2.67E-11,,
,1.390999,2.90E-11,,
,1.392999,3.13E-11,,
,1.394999,3.37E-11,,
,1.396999,3.52E-11,,
,1.398999,3.63E-11,,
,1.400999,3.64E-11,,
,1.402999,3.69E-11,,
,1.404999,3.77E-11,,
,1.406999,3.93E-11,,
,1.408999,4.10E-11,,
,1.410999,4.26E-11,,
,1.412999,4.38E-11,,
,1.414999,4.40E-11,,
,1.416999,4.36E-11,,
,1.418999,4.28E-11,,
,1.420999,4.25E-11,,
,1.422999,4.28E-11,,
,1.424999,4.37E-11,,
,1.426999,4.42E-11,,
,1.428999,4.43E-11,,
,1.430999,4.35E-11,,
,1.432999,4.21E-11,,
,1.434999,4.02E-11,,
,1.436999,3.86E-11,,
,1.438999,3.77E-11,,
,1.440999,3.71E-11,,
,1.442999,3.67E-11,,
,1.444999,3.58E-11,,
,1.446999,3.43E-11,,
,1.448999,3.20E-11,,
,1.450999,2.89E-11,,
,1.452999,2.60E-11,,
,1.454999,2.36E-11,,
,1.456999,2.17E-11,,
,1.458999,1.98E-11,,
,1.460999,1.79E-11,,
,1.462999,1.54E-11,,
,1.464999,1.22E-11,,
,1.466999,8.46E-12,,
,1.468999,4.59E-12,,
,1.470999,1.16E-12,,
,1.472999,-1.85E-12,,
,1.474999,-4.32E-12,,
,1.476999,-6.68E-12,,
,1.478999,-9.37E-12,,
,1.480999,-1.28E-11,,
,1.482999,-1.71E-11,,
,1.484999,-2.16E-11,,
,1.486999,-2.57E-11,,
,1.488999,-2.91E-11,,
,1.490999,-3.19E-11,,
,1.492999,-3.44E-11,,
,1.494999,-3.72E-11,,
,1.496999,-4.07E-11,,
,1.498999,-4.48E-11,,
,1.500999,-4.93E-11,,
,1.502999,-5.35E-11,,
,1.504999,-5.70E-11,,
,1.506999,-5.97E-11,,
,1.508999,-6.21E-11,,
,1.510999,-6.45E-11,,
,1.512999,-6.76E-11,,
,1.514999,-7.10E-11,,
,1.516999,-7.50E-11,,
,1.518999,-7.87E-11,,
,1.520999,-8.19E-11,,
,1.522999,-8.46E-11,,
,1.524999,-8.67E-11,,
,1.526999,-8.84E-11,,
,1.528999,-9.04E-11,,
,1.530999,-9.31E-11,,
,1.532999,-9.65E-11,,
,1.534999,-9.99E-11,,
,1.536999,-1.03E-10,,
,1.538999,-1.05E-10,,
,1.540999,-1.06E-10,,
,1.542999,-1.07E-10,,
,1.544999,-1.09E-10,,
,1.546999,-1.10E-10,,
,1.548999,-1.13E-10,,
,1.550999,-1.16E-10,,
,1.552999,-1.19E-10,,
,1.554999,-1.21E-10,,
,1.556999,-1.22E-10,,
,1.558999,-1.23E-10,,
,1.560999,-1.23E-10,,
,1.562999,-1.24E-10,,
,1.564999,-1.26E-10,,
,1.566999,-1.29E-10,,
,1.568999,-1.32E-10,,
,1.570999,-1.34E-10,,
,1.572999,-1.35E-10,,
,1.574999,-1.36E-10,,
,1.576999,-1.37E-10,,
,1.578999,-1.38E-10,,
,1.580999,-1.40E-10,,
,1.582999,-1.43E-10,,
,1.584999,-1.46E-10,,
,1.586999,-1.48E-10,,
,1.588999,-1.50E-10,,
,1.590999,-1.51E-10,,
,1.592999,-1.52E-10,,
,1.594999,-1.54E-10,,
,1.596999,-1.56E-10,,
,1.598999,-1.58E-10,,
,1.600999,-1.61E-10,,
,1.602999,-1.64E-10,,
,1.604999,-1.66E-10,,
,1.606999,-1.68E-10,,
,1.608999,-1.69E-10,,
,1.610999,-1.69E-10,,
,1.612999,-1.71E-10,,
,1.614999,-1.72E-10,,
,1.616999,-1.75E-10,,
,1.618999,-1.77E-10,,
,1.620999,-1.79E-10,,
,1.622999,-1.80E-10,,
,1.624999,-1.80E-10,,
,1.626999,-1.80E-10,,
,1.628999,-1.80E-10,,
,1.630999,-1.81E-10,,
,1.632999,-1.83E-10,,
,1.634999,-1.84E-10,,
,1.636999,-1.85E-10,,
,1.638999,-1.86E-10,,
,1.640999,-1.85E-10,,
,1.642999,-1.84E-10,,
,1.644999,-1.84E-10,,
,1.646999,-1.83E-10,,
,1.648999,-1.84E-10,,
,1.650999,-1.85E-10,,
,1.652999,-1.85E-10,,
,1.654999,-1.85E-10,,
,1.656999,-1.83E-10,,
,1.658999,-1.81E-10,,
,1.660999,-1.80E-10,,
,1.662999,-1.79E-10,,
,1.664999,-1.79E-10,,
,1.666999,-1.79E-10,,
,1.668999,-1.79E-10,,
,1.670999,-1.78E-10,,
,1.672999,-1.76E-10,,
,1.674999,-1.74E-10,,
,1.676999,-1.72E-10,,
,1.678999,-1.70E-10,,
,1.680999,-1.68E-10,,
,1.682999,-1.67E-10,,
,1.684999,-1.66E-10,,
,1.686999,-1.65E-10,,
,1.688999,-1.63E-10,,
,1.690999,-1.60E-10,,
,1.692999,-1.57E-10,,
,1.694999,-1.54E-10,,
,1.696999,-1.52E-10,,
,1.698999,-1.50E-10,,
,1.700999,-1.49E-10,,
,1.702999,-1.47E-10,,
,1.704999,-1.45E-10,,
,1.706999,-1.41E-10,,
,1.708999,-1.38E-10,,
,1.710999,-1.34E-10,,
,1.712999,-1.31E-10,,
,1.714999,-1.29E-10,,
,1.716999,-1.27E-10,,
,1.718999,-1.25E-10,,
,1.720999,-1.22E-10,,
,1.722999,-1.19E-10,,
,1.724999,-1.16E-10,,
,1.726999,-1.12E-10,,
,1.728999,-1.08E-10,,
,1.730999,-1.06E-10,,
,1.732999,-1.04E-10,,
,1.734999,-1.01E-10,,
,1.736999,-9.90E-11,,
,1.738999,-9.61E-11,,
,1.740999,-9.26E-11,,
,1.742999,-8.88E-11,,
,1.744999,-8.51E-11,,
,1.746999,-8.20E-11,,
,1.748999,-7.97E-11,,
,1.750999,-7.79E-11,,
,1.752999,-7.58E-11,,
,1.754999,-7.35E-11,,
,1.756999,-7.05E-11,,
,1.758999,-6.67E-11,,
,1.760999,-6.30E-11,,
,1.762999,-6.00E-11,,
,1.764999,-5.82E-11,,
,1.766999,-5.68E-11,,
,1.768999,-5.53E-11,,
,1.770999,-5.34E-11,,
,1.772999,-5.07E-11,,
,1.774999,-4.75E-11,,
,1.776999,-4.43E-11,,
,1.778999,-4.15E-11,,
,1.780999,-3.96E-11,,
,1.782999,-3.85E-11,,
,1.784999,-3.76E-11,,
,1.786999,-3.63E-11,,
,1.788999,-3.45E-11,,
,1.790999,-3.21E-11,,
,1.792999,-2.95E-11,,
,1.794999,-2.70E-11,,
,1.796999,-2.51E-11,,
,1.798999,-2.42E-11,,
,1.800999,-2.35E-11,,
,1.802999,-2.29E-11,,
,1.804999,-2.14E-11,,
,1.806999,-1.93E-11,,
,1.808999,-1.69E-11,,
,1.810999,-1.45E-11,,
,1.812999,-1.29E-11,,
,1.814999,-1.23E-11,,
,1.816999,-1.19E-11,,
,1.818999,-1.16E-11,,
,1.820999,-1.05E-11,,
,1.822999,-9.15E-12,,
,1.824999,-7.22E-12,,
,1.826999,-4.75E-12,,
,1.828999,-2.92E-12,,
,1.830999,-1.64E-12,,
,1.832999,-1.42E-12,,
,1.834999,-1.10E-12,,
,1.836999,-5.62E-13,,
,1.838999,8.34E-13,,
,1.840999,2.77E-12,,
,1.842999,4.91E-12,,
,1.844999,6.95E-12,,
,1.846999,8.13E-12,,
,1.848999,8.78E-12,,
,1.850999,8.78E-12,,
,1.852999,9.31E-12,,
,1.854999,1.02E-11,,
,1.856999,1.20E-11,,
,1.858999,1.40E-11,,
,1.860999,1.62E-11,,
,1.862999,1.76E-11,,
,1.864999,1.82E-11,,
,1.866999,1.85E-11,,
,1.868999,1.89E-11,,
,1.870999,1.97E-11,,
,1.872999,2.09E-11,,
,1.874999,2.25E-11,,
,1.876999,2.43E-11,,
,1.878999,2.58E-11,,
,1.880999,2.67E-11,,
,1.882999,2.68E-11,,
,1.884999,2.67E-11,,
,1.886999,2.69E-11,,
,1.888999,2.76E-11,,
,1.890999,2.89E-11,,
,1.892999,3.01E-11,,
,1.894999,3.13E-11,,
,1.896999,3.20E-11,,
,1.898999,3.20E-11,,
,1.900999,3.14E-11,,
,1.902999,3.07E-11,,
,1.904999,3.02E-11,,
,1.906999,3.07E-11,,
,1.908999,3.15E-11,,
,1.910999,3.23E-11,,
,1.912999,3.24E-11,,
,1.914999,3.18E-11,,
,1.916999,3.07E-11,,
,1.918999,2.96E-11,,
,1.920999,2.89E-11,,
,1.922999,2.89E-11,,
,1.924999,2.90E-11,,
,1.926999,2.93E-11,,
,1.928999,2.92E-11,,
,1.930999,2.85E-11,,
,1.932999,2.71E-11,,
,1.934999,2.53E-11,,
,1.936999,2.36E-11,,
,1.938999,2.26E-11,,
,1.940999,2.22E-11,,
,1.942999,2.23E-11,,
,1.944999,2.22E-11,,
,1.946999,2.16E-11,,
,1.948999,1.97E-11,,
,1.950999,1.74E-11,,
,1.952999,1.53E-11,,
,1.954999,1.39E-11,,
,1.956999,1.33E-11,,
,1.958999,1.26E-11,,
,1.960999,1.21E-11,,
,1.962999,1.11E-11,,
,1.964999,9.31E-12,,
,1.966999,6.85E-12,,
,1.968999,4.05E-12,,
,1.970999,2.01E-12,,
,1.972999,9.41E-13,,
,1.974999,2.97E-13,,
,1.976999,-4.55E-13,,
,1.978999,-1.85E-12,,
,1.980999,-4.00E-12,,
,1.982999,-6.36E-12,,
,1.984999,-9.37E-12,,
,1.986999,-1.20E-11,,
,1.988999,-1.43E-11,,
,1.990999,-1.58E-11,,
,1.992999,-1.70E-11,,
,1.994999,-1.83E-11,,
,1.996999,-2.02E-11,,
,1.998999,-2.32E-11,,
,2.000999,-2.66E-11,,
,2.002999,-2.99E-11,,
,2.004999,-3.24E-11,,
,2.006999,-3.45E-11,,
,2.008999,-3.59E-11,,
,2.010999,-3.72E-11,,
,2.012999,-3.92E-11,,
,2.014999,-4.20E-11,,
,2.016999,-4.54E-11,,
,2.018999,-4.88E-11,,
,2.020999,-5.18E-11,,
,2.022999,-5.41E-11,,
,2.024999,-5.59E-11,,
,2.026999,-5.72E-11,,
,2.028999,-5.89E-11,,
,2.030999,-6.11E-11,,
,2.032999,-6.43E-11,,
,2.034999,-6.76E-11,,
,2.036999,-7.06E-11,,
,2.038999,-7.26E-11,,
,2.040999,-7.41E-11,,
,2.042999,-7.51E-11,,
,2.044999,-7.66E-11,,
,2.046999,-7.86E-11,,
,2.048999,-8.15E-11,,
,2.050999,-8.46E-11,,
,2.052999,-8.75E-11,,
,2.054999,-9.00E-11,,
,2.056999,-9.16E-11,,
,2.058999,-9.30E-11,,
,2.060999,-9.42E-11,,
,2.062999,-9.58E-11,,
,2.064999,-9.79E-11,,
,2.066999,-1.01E-10,,
,2.068999,-1.04E-10,,
,2.070999,-1.06E-10,,
,2.072999,-1.08E-10,,
,2.074999,-1.08E-10,,
,2.076999,-1.09E-10,,
,2.078999,-1.10E-10,,
,2.080999,-1.12E-10,,
,2.082999,-1.14E-10,,
,2.084999,-1.17E-10,,
,2.086999,-1.19E-10,,
,2.088999,-1.20E-10,,
,2.090999,-1.21E-10,,
,2.092999,-1.21E-10,,
,2.094999,-1.21E-10,,
,2.096999,-1.22E-10,,
,2.098999,-1.24E-10,,
,2.100999,-1.25E-10,,
,2.102999,-1.27E-10,,
,2.104999,-1.27E-10,,
,2.106999,-1.28E-10,,
,2.108999,-1.27E-10,,
,2.110999,-1.27E-10,,
,2.112999,-1.26E-10,,
,2.114999,-1.27E-10,,
,2.116999,-1.28E-10,,
,2.118999,-1.29E-10,,
,2.120999,-1.30E-10,,
,2.122999,-1.29E-10,,
,2.124999,-1.28E-10,,
,2.126999,-1.27E-10,,
,2.128999,-1.26E-10,,
,2.130999,-1.26E-10,,
,2.132999,-1.26E-10,,
,2.134999,-1.26E-10,,
,2.136999,-1.27E-10,,
,2.138999,-1.26E-10,,
,2.140999,-1.24E-10,,
,2.142999,-1.23E-10,,
,2.144999,-1.21E-10,,
,2.146999,-1.20E-10,,
,2.148999,-1.20E-10,,
,2.150999,-1.20E-10,,
,2.152999,-1.19E-10,,
,2.154999,-1.18E-10,,
,2.156999,-1.16E-10,,
,2.158999,-1.14E-10,,
,2.160999,-1.12E-10,,
,2.162999,-1.11E-10,,
,2.164999,-1.10E-10,,
,2.166999,-1.10E-10,,
,2.168999,-1.10E-10,,
,2.170999,-1.09E-10,,
,2.172999,-1.08E-10,,
,2.174999,-1.06E-10,,
,2.176999,-1.04E-10,,
,2.178999,-1.02E-10,,
,2.180999,-1.01E-10,,
,2.182999,-1.01E-10,,
,2.184999,-1.01E-10,,
,2.186999,-1.00E-10,,
,2.188999,-9.91E-11,,
,2.190999,-9.76E-11,,
,2.192999,-9.56E-11,,
,2.194999,-9.41E-11,,
,2.196999,-9.28E-11,,
,2.198999,-9.25E-11,,
,2.200999,-9.22E-11,,
,2.202999,-9.21E-11,,
,2.204999,-9.15E-11,,
,2.206999,-9.03E-11,,
,2.208999,-8.87E-11,,
,2.210999,-8.70E-11,,
,2.212999,-8.57E-11,,
,2.214999,-8.52E-11,,
,2.216999,-8.54E-11,,
,2.218999,-8.57E-11,,
,2.220999,-8.55E-11,,
,2.222999,-8.46E-11,,
,2.224999,-8.33E-11,,
,2.226999,-8.18E-11,,
,2.228999,-8.08E-11,,
,2.230999,-8.03E-11,,
,2.232999,-8.10E-11,,
,2.234999,-8.16E-11,,
,2.236999,-8.20E-11,,
,2.238999,-8.18E-11,,
,2.240999,-8.13E-11,,
,2.242999,-8.05E-11,,
,2.244999,-8.00E-11,,
,2.246999,-7.99E-11,,
,2.248999,-8.06E-11,,
,2.250999,-8.18E-11,,
,2.252999,-8.31E-11,,
,2.254999,-8.37E-11,,
,2.256999,-8.37E-11,,
,2.258999,-8.30E-11,,
,2.260999,-8.29E-11,,
,2.262999,-8.32E-11,,
,2.264999,-8.45E-11,,
,2.266999,-8.61E-11,,
,2.268999,-8.81E-11,,
,2.270999,-8.95E-11,,
,2.272999,-9.01E-11,,
,2.274999,-9.03E-11,,
,2.276999,-9.07E-11,,
,2.278999,-9.16E-11,,
,2.280999,-9.31E-11,,
,2.282999,-9.51E-11,,
,2.284999,-9.75E-11,,
,2.286999,-9.97E-11,,
,2.288999,-1.01E-10,,
,2.290999,-1.02E-10,,
,2.292999,-1.03E-10,,
,2.294999,-1.04E-10,,
,2.296999,-1.06E-10,,
,2.298999,-1.08E-10,,
,2.300999,-1.11E-10,,
,2.302999,-1.13E-10,,
,2.304999,-1.15E-10,,
,2.306999,-1.17E-10,,
,2.308999,-1.18E-10,,
,2.310999,-1.20E-10,,
,2.312999,-1.21E-10,,
,2.314999,-1.23E-10,,
,2.316999,-1.26E-10,,
,2.318999,-1.29E-10,,
,2.320999,-1.32E-10,,
,2.322999,-1.34E-10,,
,2.324999,-1.35E-10,,
,2.326999,-1.36E-10,,
,2.328999,-1.37E-10,,
,2.330999,-1.39E-10,,
,2.332999,-1.42E-10,,
,2.334999,-1.44E-10,,
,2.336999,-1.46E-10,,
,2.338999,-1.48E-10,,
,2.340999,-1.49E-10,,
,2.342999,-1.49E-10,,
,2.344999,-1.50E-10,,
,2.346999,-1.51E-10,,
,2.348999,-1.52E-10,,
,2.350999,-1.55E-10,,
,2.352999,-1.57E-10,,
,2.354999,-1.58E-10,,
,2.356999,-1.58E-10,,
,2.358999,-1.58E-10,,
,2.360999,-1.58E-10,,
,2.362999,-1.58E-10,,
,2.364999,-1.59E-10,,
,2.366999,-1.60E-10,,
,2.368999,-1.61E-10,,
,2.370999,-1.62E-10,,
,2.372999,-1.62E-10,,
,2.374999,-1.62E-10,,
,2.376999,-1.61E-10,,
,2.378999,-1.60E-10,,
,2.380999,-1.60E-10,,
,2.382999,-1.61E-10,,
,2.384999,-1.62E-10,,
,2.386999,-1.63E-10,,
,2.388999,-1.63E-10,,
,2.390999,-1.62E-10,,
,2.392999,-1.61E-10,,
,2.394999,-1.61E-10,,
,2.396999,-1.60E-10,,
,2.398999,-1.61E-10,,
,2.400999,-1.62E-10,,
,2.402999,-1.62E-10,,
,2.404999,-1.63E-10,,
,2.406999,-1.62E-10,,
,2.408999,-1.61E-10,,
,2.410999,-1.61E-10,,
,2.412999,-1.60E-10,,
,2.414999,-1.61E-10,,
,2.416999,-1.61E-10,,
,2.418999,-1.62E-10,,
,2.420999,-1.63E-10,,
,2.422999,-1.63E-10,,
,2.424999,-1.63E-10,,
,2.426999,-1.62E-10,,
,2.428999,-1.61E-10,,
,2.430999,-1.61E-10,,
,2.432999,-1.61E-10,,
,2.434999,-1.63E-10,,
,2.436999,-1.63E-10,,
,2.438999,-1.63E-10,,
,2.440999,-1.62E-10,,
,2.442999,-1.61E-10,,
,2.444999,-1.60E-10,,
,2.446999,-1.59E-10,,
,2.448999,-1.59E-10,,
,2.450999,-1.59E-10,,
,2.452999,-1.59E-10,,
,2.454999,-1.59E-10,,
,2.456999,-1.58E-10,,
,2.458999,-1.56E-10,,
,2.460999,-1.54E-10,,
,2.462999,-1.52E-10,,
,2.464999,-1.51E-10,,
,2.466999,-1.51E-10,,
,2.468999,-1.50E-10,,
,2.470999,-1.49E-10,,
,2.472999,-1.47E-10,,
,2.474999,-1.45E-10,,
,2.476999,-1.42E-10,,
,2.478999,-1.40E-10,,
,2.480999,-1.38E-10,,
,2.482999,-1.36E-10,,
,2.484999,-1.35E-10,,
,2.486999,-1.34E-10,,
,2.488999,-1.31E-10,,
,2.490999,-1.28E-10,,
,2.492999,-1.25E-10,,
,2.494999,-1.21E-10,,
,2.496999,-1.19E-10,,
,2.498999,-1.17E-10,,
,2.500999,-1.15E-10,,
,2.502999,-1.13E-10,,
,2.504999,-1.11E-10,,
,2.506999,-1.07E-10,,
,2.508999,-1.04E-10,,
,2.510999,-9.98E-11,,
,2.512999,-9.68E-11,,
,2.514999,-9.45E-11,,
,2.516999,-9.27E-11,,
,2.518999,-9.10E-11,,
,2.520999,-8.90E-11,,
,2.522999,-8.66E-11,,
,2.524999,-8.37E-11,,
,2.526999,-8.04E-11,,
,2.528999,-7.78E-11,,
,2.530999,-7.56E-11,,
,2.532999,-7.43E-11,,
,2.534999,-7.35E-11,,
,2.536999,-7.25E-11,,
,2.538999,-7.10E-11,,
,2.540999,-6.87E-11,,
,2.542999,-6.64E-11,,
,2.544999,-6.41E-11,,
,2.546999,-6.26E-11,,
,2.548999,-6.21E-11,,
,2.550999,-6.19E-11,,
,2.552999,-6.15E-11,,
,2.554999,-6.05E-11,,
,2.556999,-5.90E-11,,
,2.558999,-5.74E-11,,
,2.560999,-5.59E-11,,
,2.562999,-5.50E-11,,
,2.564999,-5.46E-11,,
,2.566999,-5.51E-11,,
,2.568999,-5.56E-11,,
,2.570999,-5.60E-11,,
,2.572999,-5.51E-11,,
,2.574999,-5.39E-11,,
,2.576999,-5.26E-11,,
,2.578999,-5.22E-11,,
,2.580999,-5.23E-11,,
,2.582999,-5.34E-11,,
,2.584999,-5.43E-11,,
,2.586999,-5.53E-11,,
,2.588999,-5.56E-11,,
,2.590999,-5.54E-11,,
,2.592999,-5.47E-11,,
,2.594999,-5.41E-11,,
,2.596999,-5.46E-11,,
,2.598999,-5.59E-11,,
,2.600999,-5.72E-11,,
,2.602999,-5.85E-11,,
,2.604999,-5.95E-11,,
,2.606999,-5.99E-11,,
,2.608999,-6.00E-11,,
,2.610999,-5.97E-11,,
,2.612999,-6.01E-11,,
,2.614999,-6.13E-11,,
,2.616999,-6.36E-11,,
,2.618999,-6.56E-11,,
,2.620999,-6.72E-11,,
,2.622999,-6.83E-11,,
,2.624999,-6.92E-11,,
,2.626999,-7.00E-11,,
,2.628999,-7.10E-11,,
,2.630999,-7.29E-11,,
,2.632999,-7.55E-11,,
,2.634999,-7.86E-11,,
,2.636999,-8.15E-11,,
,2.638999,-8.39E-11,,
,2.640999,-8.57E-11,,
,2.642999,-8.74E-11,,
,2.644999,-8.95E-11,,
,2.646999,-9.21E-11,,
,2.648999,-9.56E-11,,
,2.650999,-9.97E-11,,
,2.652999,-1.04E-10,,
,2.654999,-1.07E-10,,
,2.656999,-1.10E-10,,
,2.658999,-1.12E-10,,
,2.660999,-1.15E-10,,
,2.662999,-1.18E-10,,
,2.664999,-1.22E-10,,
,2.666999,-1.26E-10,,
,2.668999,-1.30E-10,,
,2.670999,-1.34E-10,,
,2.672999,-1.37E-10,,
,2.674999,-1.39E-10,,
,2.676999,-1.41E-10,,
,2.678999,-1.44E-10,,
,2.680999,-1.47E-10,,
,2.682999,-1.50E-10,,
,2.684999,-1.54E-10,,
,2.686999,-1.58E-10,,
,2.688999,-1.60E-10,,
,2.690999,-1.62E-10,,
,2.692999,-1.64E-10,,
,2.694999,-1.65E-10,,
,2.696999,-1.67E-10,,
,2.698999,-1.70E-10,,
,2.700999,-1.73E-10,,
,2.702999,-1.75E-10,,
,2.704999,-1.77E-10,,
,2.706999,-1.78E-10,,
,2.708999,-1.78E-10,,
,2.710999,-1.78E-10,,
,2.712999,-1.79E-10,,
,2.714999,-1.80E-10,,
,2.716999,-1.82E-10,,
,2.718999,-1.83E-10,,
,2.720999,-1.84E-10,,
,2.722999,-1.84E-10,,
,2.724999,-1.84E-10,,
,2.726999,-1.83E-10,,
,2.728999,-1.82E-10,,
,2.730999,-1.82E-10,,
,2.732999,-1.82E-10,,
,2.734999,-1.82E-10,,
,2.736999,-1.82E-10,,
,2.738999,-1.81E-10,,
,2.740999,-1.80E-10,,
,2.742999,-1.78E-10,,
,2.744999,-1.76E-10,,
,2.746999,-1.75E-10,,
,2.748999,-1.74E-10,,
,2.750999,-1.74E-10,,
,2.752999,-1.74E-10,,
,2.754999,-1.72E-10,,
,2.756999,-1.70E-10,,
,2.758999,-1.67E-10,,
,2.760999,-1.65E-10,,
,2.762999,-1.62E-10,,
,2.764999,-1.61E-10,,
,2.766999,-1.60E-10,,
,2.768999,-1.59E-10,,
,2.770999,-1.57E-10,,
,2.772999,-1.54E-10,,
,2.774999,-1.52E-10,,
,2.776999,-1.48E-10,,
,2.778999,-1.46E-10,,
,2.780999,-1.43E-10,,
,2.782999,-1.41E-10,,
,2.784999,-1.40E-10,,
,2.786999,-1.38E-10,,
,2.788999,-1.36E-10,,
,2.790999,-1.32E-10,,
,2.792999,-1.29E-10,,
,2.794999,-1.25E-10,,
,2.796999,-1.22E-10,,
,2.798999,-1.20E-10,,
,2.800999,-1.18E-10,,
,2.802999,-1.16E-10,,
,2.804999,-1.13E-10,,
,2.806999,-1.10E-10,,
,2.808999,-1.06E-10,,
,2.810999,-1.02E-10,,
,2.812999,-9.89E-11,,
,2.814999,-9.61E-11,,
,2.816999,-9.41E-11,,
,2.818999,-9.19E-11,,
,2.820999,-8.95E-11,,
,2.822999,-8.60E-11,,
,2.824999,-8.18E-11,,
,2.826999,-7.75E-11,,
,2.828999,-7.38E-11,,
,2.830999,-7.07E-11,,
,2.832999,-6.82E-11,,
,2.834999,-6.60E-11,,
,2.836999,-6.35E-11,,
,2.838999,-6.04E-11,,
,2.840999,-5.65E-11,,
,2.842999,-5.25E-11,,
,2.844999,-4.86E-11,,
,2.846999,-4.52E-11,,
,2.848999,-4.23E-11,,
,2.850999,-4.02E-11,,
,2.852999,-3.80E-11,,
,2.854999,-3.58E-11,,
,2.856999,-3.24E-11,,
,2.858999,-2.87E-11,,
,2.860999,-2.49E-11,,
,2.862999,-2.19E-11,,
,2.864999,-1.99E-11,,
,2.866999,-1.84E-11,,
,2.868999,-1.72E-11,,
,2.870999,-1.56E-11,,
,2.872999,-1.34E-11,,
,2.874999,-1.10E-11,,
,2.876999,-8.51E-12,,
,2.878999,-6.47E-12,,
,2.880999,-5.07E-12,,
,2.882999,-4.75E-12,,
,2.884999,-4.75E-12,,
,2.886999,-4.53E-12,,
,2.888999,-3.57E-12,,
,2.890999,-2.28E-12,,
,2.892999,-6.69E-13,,
,2.894999,4.04E-13,,
,2.896999,7.26E-13,,
,2.898999,-2.53E-14,,
,2.900999,-1.42E-12,,
,2.902999,-2.71E-12,,
,2.904999,-3.57E-12,,
,2.906999,-3.57E-12,,
,2.908999,-3.46E-12,,
,2.910999,-3.57E-12,,
,2.912999,-4.32E-12,,
,2.914999,-5.72E-12,,
,2.916999,-7.75E-12,,
,2.918999,-1.00E-11,,
,2.920999,-1.22E-11,,
,2.922999,-1.39E-11,,
,2.924999,-1.52E-11,,
,2.926999,-1.63E-11,,
,2.928999,-1.80E-11,,
,2.930999,-2.03E-11,,
,2.932999,-2.36E-11,,
,2.934999,-2.73E-11,,
,2.936999,-3.08E-11,,
,2.938999,-3.37E-11,,
,2.940999,-3.60E-11,,
,2.942999,-3.79E-11,,
,2.944999,-4.02E-11,,
,2.946999,-4.30E-11,,
,2.948999,-4.67E-11,,
,2.950999,-5.08E-11,,
,2.952999,-5.52E-11,,
,2.954999,-5.92E-11,,
,2.956999,-6.23E-11,,
,2.958999,-6.50E-11,,
,2.960999,-6.77E-11,,
,2.962999,-7.11E-11,,
,2.964999,-7.52E-11,,
,2.966999,-8.01E-11,,
,2.968999,-8.51E-11,,
,2.970999,-8.95E-11,,
,2.972999,-9.30E-11,,
,2.974999,-9.60E-11,,
,2.976999,-9.89E-11,,
,2.978999,-1.02E-10,,
,2.980999,-1.06E-10,,
,2.982999,-1.11E-10,,
,2.984999,-1.16E-10,,
,2.986999,-1.20E-10,,
,2.988999,-1.24E-10,,
,2.990999,-1.28E-10,,
,2.992999,-1.31E-10,,
,2.994999,-1.35E-10,,
,2.996999,-1.39E-10,,
,2.998999,-1.43E-10,,
,3.000999,-1.48E-10,,
,3.002999,-1.54E-10,,
,3.004999,-1.58E-10,,
,3.006999,-1.62E-10,,
,3.008999,-1.66E-10,,
,3.010999,-1.70E-10,,
,3.012999,-1.75E-10,,
,3.014999,-1.81E-10,,
,3.016999,-1.87E-10,,
,3.018999,-1.93E-10,,
,3.020999,-1.99E-10,,
,3.022999,-2.04E-10,,
,3.024999,-2.09E-10,,
,3.026999,-2.14E-10,,
,3.028999,-2.19E-10,,
,3.030999,-2.25E-10,,
,3.032999,-2.32E-10,,
,3.034999,-2.40E-10,,
,3.036999,-2.47E-10,,
,3.038999,-2.54E-10,,
,3.040999,-2.60E-10,,
,3.042999,-2.67E-10,,
,3.044999,-2.73E-10,,
,3.046999,-2.81E-10,,
,3.048999,-2.89E-10,,
,3.050999,-2.98E-10,,
,3.052999,-3.06E-10,,
,3.054999,-3.15E-10,,
,3.056999,-3.22E-10,,
,3.058999,-3.30E-10,,
,3.060999,-3.38E-10,,
,3.062999,-3.46E-10,,
,3.064999,-3.55E-10,,
,3.066999,-3.65E-10,,
,3.068999,-3.75E-10,,
,3.070999,-3.84E-10,,
,3.072999,-3.93E-10,,
,3.074999,-4.01E-10,,
,3.076999,-4.10E-10,,
,3.078999,-4.18E-10,,
,3.080999,-4.27E-10,,
,3.082999,-4.38E-10,,
,3.084999,-4.48E-10,,
,3.086999,-4.58E-10,,
,3.088999,-4.67E-10,,
,3.090999,-4.76E-10,,
,3.092999,-4.84E-10,,
,3.094999,-4.93E-10,,
,3.096999,-5.01E-10,,
,3.098999,-5.11E-10,,
,3.100999,-5.20E-10,,
,3.102999,-5.30E-10,,
,3.104999,-5.39E-10,,
,3.106999,-5.47E-10,,
,3.108999,-5.54E-10,,
,3.110999,-5.61E-10,,
,3.112999,-5.69E-10,,
,3.114999,-5.77E-10,,
,3.116999,-5.85E-10,,
,3.118999,-5.93E-10,,
,3.120999,-6.00E-10,,
,3.122999,-6.07E-10,,
,3.124999,-6.12E-10,,
,3.126999,-6.18E-10,,
,3.128999,-6.23E-10,,
,3.130999,-6.28E-10,,
,3.132999,-6.34E-10,,
,3.134999,-6.40E-10,,
,3.136999,-6.46E-10,,
,3.138999,-6.50E-10,,
,3.140999,-6.54E-10,,
,3.142999,-6.57E-10,,
,3.144999,-6.60E-10,,
,3.146999,-6.64E-10,,
,3.148999,-6.67E-10,,
,3.150999,-6.71E-10,,
,3.152999,-6.75E-10,,
,3.154999,-6.78E-10,,
,3.156999,-6.80E-10,,
,3.158999,-6.81E-10,,
,3.160999,-6.82E-10,,
,3.162999,-6.83E-10,,
,3.164999,-6.85E-10,,
,3.166999,-6.87E-10,,
,3.168999,-6.89E-10,,
,3.170999,-6.90E-10,,
,3.172999,-6.91E-10,,
,3.174999,-6.91E-10,,
,3.176999,-6.90E-10,,
,3.178999,-6.90E-10,,
,3.180999,-6.90E-10,,
,3.182999,-6.90E-10,,
,3.184999,-6.91E-10,,
,3.186999,-6.91E-10,,
,3.188999,-6.91E-10,,
,3.190999,-6.90E-10,,
,3.192999,-6.89E-10,,
,3.194999,-6.87E-10,,
,3.196999,-6.87E-10,,
,3.198999,-6.86E-10,,
,3.200999,-6.86E-10,,
,3.202999,-6.86E-10,,
,3.204999,-6.85E-10,,
,3.206999,-6.84E-10,,
,3.208999,-6.82E-10,,
,3.210999,-6.80E-10,,
,3.212999,-6.78E-10,,
,3.214999,-6.77E-10,,
,3.216999,-6.76E-10,,
,3.218999,-6.76E-10,,
,3.220999,-6.75E-10,,
,3.222999,-6.73E-10,,
,3.224999,-6.72E-10,,
,3.226999,-6.69E-10,,
,3.228999,-6.67E-10,,
,3.230999,-6.66E-10,,
,3.232999,-6.65E-10,,
,3.234999,-6.65E-10,,
,3.236999,-6.64E-10,,
,3.238999,-6.63E-10,,
,3.240999,-6.60E-10,,
,3.242999,-6.58E-10,,
,3.244999,-6.56E-10,,
,3.246999,-6.54E-10,,
,3.248999,-6.54E-10,,
,3.250999,-6.53E-10,,
,3.252999,-6.53E-10,,
,3.254999,-6.52E-10,,
,3.256999,-6.50E-10,,
,3.258999,-6.48E-10,,
,3.260999,-6.46E-10,,
,3.262999,-6.44E-10,,
,3.264999,-6.44E-10,,
,3.266999,-6.44E-10,,
,3.268999,-6.43E-10,,
,3.270999,-6.42E-10,,
,3.272999,-6.41E-10,,
,3.274999,-6.39E-10,,
,3.276999,-6.37E-10,,
,3.278999,-6.36E-10,,
,3.280999,-6.35E-10,,
,3.282999,-6.34E-10,,
,3.284999,-6.34E-10,,
,3.286999,-6.34E-10,,
,3.288999,-6.33E-10,,
,3.290999,-6.31E-10,,
,3.292999,-6.29E-10,,
,3.294999,-6.27E-10,,
,3.296999,-6.25E-10,,
,3.298999,-6.24E-10,,
,3.300999,-6.24E-10,,
,3.302999,-6.23E-10,,
,3.304999,-6.21E-10,,
,3.306999,-6.19E-10,,
,3.308999,-6.16E-10,,
,3.310999,-6.14E-10,,
,3.312999,-6.11E-10,,
,3.314999,-6.10E-10,,
,3.316999,-6.09E-10,,
,3.318999,-6.08E-10,,
,3.320999,-6.06E-10,,
,3.322999,-6.04E-10,,
,3.324999,-6.01E-10,,
,3.326999,-5.98E-10,,
,3.328999,-5.94E-10,,
,3.330999,-5.92E-10,,
,3.332999,-5.90E-10,,
,3.334999,-5.88E-10,,
,3.336999,-5.85E-10,,
,3.338999,-5.82E-10,,
,3.340999,-5.79E-10,,
,3.342999,-5.74E-10,,
,3.344999,-5.71E-10,,
,3.346999,-5.67E-10,,
,3.348999,-5.64E-10,,
,3.350999,-5.61E-10,,
,3.352999,-5.57E-10,,
,3.354999,-5.53E-10,,
,3.356999,-5.48E-10,,
,3.358999,-5.43E-10,,
,3.360999,-5.37E-10,,
,3.362999,-5.32E-10,,
,3.364999,-5.27E-10,,
,3.366999,-5.23E-10,,
,3.368999,-5.18E-10,,
,3.370999,-5.13E-10,,
,3.372999,-5.07E-10,,
,3.374999,-5.00E-10,,
,3.376999,-4.92E-10,,
,3.378999,-4.85E-10,,
,3.380999,-4.79E-10,,
,3.382999,-4.73E-10,,
,3.384999,-4.67E-10,,
,3.386999,-4.60E-10,,
,3.388999,-4.53E-10,,
,3.390999,-4.45E-10,,
,3.392999,-4.37E-10,,
,3.394999,-4.28E-10,,
,3.396999,-4.20E-10,,
,3.398999,-4.12E-10,,
,3.400999,-4.05E-10,,
,3.402999,-3.97E-10,,
,3.404999,-3.88E-10,,
,3.406999,-3.79E-10,,
,3.408999,-3.69E-10,,
,3.410999,-3.59E-10,,
,3.412999,-3.50E-10,,
,3.414999,-3.41E-10,,
,3.416999,-3.32E-10,,
,3.418999,-3.23E-10,,
,3.420999,-3.14E-10,,
,3.422999,-3.04E-10,,
,3.424999,-2.93E-10,,
,3.426999,-2.83E-10,,
,3.428999,-2.73E-10,,
,3.430999,-2.63E-10,,
,3.432999,-2.53E-10,,
,3.434999,-2.45E-10,,
,3.436999,-2.35E-10,,
,3.438999,-2.26E-10,,
,3.440999,-2.15E-10,,
,3.442999,-2.05E-10,,
,3.444999,-1.95E-10,,
,3.446999,-1.85E-10,,
,3.448999,-1.76E-10,,
,3.450999,-1.68E-10,,
,3.452999,-1.60E-10,,
,3.454999,-1.51E-10,,
,3.456999,-1.42E-10,,
,3.458999,-1.32E-10,,
,3.460999,-1.23E-10,,
,3.462999,-1.15E-10,,
,3.464999,-1.07E-10,,
,3.466999,-9.95E-11,,
,3.468999,-9.26E-11,,
,3.470999,-8.54E-11,,
,3.472999,-7.79E-11,,
,3.474999,-7.00E-11,,
,3.476999,-6.22E-11,,
,3.478999,-5.50E-11,,
,3.480999,-4.86E-11,,
,3.482999,-4.31E-11,,
,3.484999,-3.79E-11,,
,3.486999,-3.24E-11,,
,3.488999,-2.65E-11,,
,3.490999,-2.02E-11,,
,3.492999,-1.41E-11,,
,3.494999,-8.29E-12,,
,3.496999,-3.03E-12,,
,3.498999,1.26E-12,,
,3.500999,5.56E-12,,
,3.502999,9.74E-12,,
,3.504999,1.43E-11,,
,3.506999,1.88E-11,,
,3.508999,2.35E-11,,
,3.510999,2.83E-11,,
,3.512999,3.27E-11,,
,3.514999,3.63E-11,,
,3.516999,3.93E-11,,
,3.518999,4.21E-11,,
,3.520999,4.52E-11,,
,3.522999,4.85E-11,,
,3.524999,5.23E-11,,
,3.526999,5.60E-11,,
,3.528999,5.94E-11,,
,3.530999,6.21E-11,,
,3.532999,6.41E-11,,
,3.534999,6.59E-11,,
,3.536999,6.77E-11,,
,3.538999,7.03E-11,,
,3.540999,7.32E-11,,
,3.542999,7.62E-11,,
,3.544999,7.90E-11,,
,3.546999,8.11E-11,,
,3.548999,8.30E-11,,
,3.550999,8.38E-11,,
,3.552999,8.50E-11,,
,3.554999,8.65E-11,,
,3.556999,8.88E-11,,
,3.558999,9.10E-11,,
,3.560999,9.34E-11,,
,3.562999,9.53E-11,,
,3.564999,9.66E-11,,
,3.566999,9.71E-11,,
,3.568999,9.76E-11,,
,3.570999,9.85E-11,,
,3.572999,9.98E-11,,
,3.574999,1.02E-10,,
,3.576999,1.03E-10,,
,3.578999,1.05E-10,,
,3.580999,1.06E-10,,
,3.582999,1.06E-10,,
,3.584999,1.06E-10,,
,3.586999,1.07E-10,,
,3.588999,1.08E-10,,
,3.590999,1.09E-10,,
,3.592999,1.11E-10,,
,3.594999,1.12E-10,,
,3.596999,1.13E-10,,
,3.598999,1.13E-10,,
,3.600999,1.13E-10,,
,3.602999,1.13E-10,,
,3.604999,1.14E-10,,
,3.606999,1.15E-10,,
,3.608999,1.16E-10,,
,3.610999,1.18E-10,,
,3.612999,1.19E-10,,
,3.614999,1.19E-10,,
,3.616999,1.19E-10,,
,3.618999,1.20E-10,,
,3.620999,1.20E-10,,
,3.622999,1.21E-10,,
,3.624999,1.22E-10,,
,3.626999,1.24E-10,,
,3.628999,1.25E-10,,
,3.630999,1.25E-10,,
,3.632999,1.25E-10,,
,3.634999,1.26E-10,,
,3.636999,1.26E-10,,
,3.638999,1.26E-10,,
,3.640999,1.27E-10,,
,3.642999,1.28E-10,,
,3.644999,1.29E-10,,
,3.646999,1.30E-10,,
,3.648999,1.29E-10,,
,3.650999,1.29E-10,,
,3.652999,1.28E-10,,
,3.654999,1.28E-10,,
,3.656999,1.29E-10,,
,3.658999,1.30E-10,,
,3.660999,1.30E-10,,
,3.662999,1.30E-10,,
,3.664999,1.30E-10,,
,3.666999,1.29E-10,,
,3.668999,1.28E-10,,
,3.670999,1.28E-10,,
,3.672999,1.28E-10,,
,3.674999,1.28E-10,,
,3.676999,1.29E-10,,
,3.678999,1.30E-10,,
,3.680999,1.29E-10,,
,3.682999,1.29E-10,,
,3.684999,1.28E-10,,
,3.686999,1.28E-10,,
,3.688999,1.28E-10,,
,3.690999,1.29E-10,,
,3.692999,1.30E-10,,
,3.694999,1.31E-10,,
,3.696999,1.31E-10,,
,3.698999,1.31E-10,,
,3.700999,1.31E-10,,
,3.702999,1.31E-10,,
,3.704999,1.32E-10,,
,3.706999,1.33E-10,,
,3.708999,1.34E-10,,
,3.710999,1.36E-10,,
,3.712999,1.37E-10,,
,3.714999,1.38E-10,,
,3.716999,1.38E-10,,
,3.718999,1.39E-10,,
,3.720999,1.40E-10,,
,3.722999,1.41E-10,,
,3.724999,1.43E-10,,
,3.726999,1.45E-10,,
,3.728999,1.47E-10,,
,3.730999,1.48E-10,,
,3.732999,1.49E-10,,
,3.734999,1.49E-10,,
,3.736999,1.50E-10,,
,3.738999,1.52E-10,,
,3.740999,1.54E-10,,
,3.742999,1.56E-10,,
,3.744999,1.58E-10,,
,3.746999,1.59E-10,,
,3.748999,1.59E-10,,
,3.750999,1.59E-10,,
,3.752999,1.60E-10,,
,3.754999,1.60E-10,,
,3.756999,1.62E-10,,
,3.758999,1.63E-10,,
,3.760999,1.64E-10,,
,3.762999,1.65E-10,,
,3.764999,1.65E-10,,
,3.766999,1.64E-10,,
,3.768999,1.63E-10,,
,3.770999,1.63E-10,,
,3.772999,1.63E-10,,
,3.774999,1.63E-10,,
,3.776999,1.63E-10,,
,3.778999,1.63E-10,,
,3.780999,1.62E-10,,
,3.782999,1.60E-10,,
,3.784999,1.58E-10,,
,3.786999,1.56E-10,,
,3.788999,1.55E-10,,
,3.790999,1.54E-10,,
,3.792999,1.52E-10,,
,3.794999,1.51E-10,,
,3.796999,1.48E-10,,
,3.798999,1.45E-10,,
,3.800999,1.42E-10,,
,3.802999,1.38E-10,,
,3.804999,1.34E-10,,
,3.806999,1.31E-10,,
,3.808999,1.28E-10,,
,3.810999,1.24E-10,,
,3.812999,1.20E-10,,
,3.814999,1.15E-10,,
,3.816999,1.09E-10,,
,3.818999,1.03E-10,,
,3.820999,9.69E-11,,
,3.822999,9.09E-11,,
,3.824999,8.50E-11,,
,3.826999,7.87E-11,,
,3.828999,7.19E-11,,
,3.830999,6.44E-11,,
,3.832999,5.62E-11,,
,3.834999,4.75E-11,,
,3.836999,3.88E-11,,
,3.838999,2.98E-11,,
,3.840999,2.10E-11,,
,3.842999,1.19E-11,,
,3.844999,2.66E-12,,
,3.846999,-7.43E-12,,
,3.848999,-1.84E-11,,
,3.850999,-2.99E-11,,
,3.852999,-4.17E-11,,
,3.854999,-5.34E-11,,
,3.856999,-6.48E-11,,
,3.858999,-7.62E-11,,
,3.860999,-8.82E-11,,
,3.862999,-1.01E-10,,
,3.864999,-1.15E-10,,
,3.866999,-1.29E-10,,
,3.868999,-1.44E-10,,
,3.870999,-1.59E-10,,
,3.872999,-1.73E-10,,
,3.874999,-1.88E-10,,
,3.876999,-2.03E-10,,
,3.878999,-2.18E-10,,
,3.880999,-2.34E-10,,
,3.882999,-2.51E-10,,
,3.884999,-2.68E-10,,
,3.886999,-2.85E-10,,
,3.888999,-3.02E-10,,
,3.890999,-3.19E-10,,
,3.892999,-3.36E-10,,
,3.894999,-3.53E-10,,
,3.896999,-3.71E-10,,
,3.898999,-3.89E-10,,
,3.900999,-4.09E-10,,
,3.902999,-4.27E-10,,
,3.904999,-4.46E-10,,
,3.906999,-4.64E-10,,
,3.908999,-4.83E-10,,
,3.910999,-5.02E-10,,
,3.912999,-5.21E-10,,
,3.914999,-5.40E-10,,
,3.916999,-5.61E-10,,
,3.918999,-5.81E-10,,
,3.920999,-6.00E-10,,
,3.922999,-6.19E-10,,
,3.924999,-6.38E-10,,
,3.926999,-6.57E-10,,
,3.928999,-6.76E-10,,
,3.930999,-6.95E-10,,
,3.932999,-7.14E-10,,
,3.934999,-7.33E-10,,
,3.936999,-7.52E-10,,
,3.938999,-7.70E-10,,
,3.940999,-7.88E-10,,
,3.942999,-8.05E-10,,
,3.944999,-8.22E-10,,
,3.946999,-8.40E-10,,
,3.948999,-8.57E-10,,
,3.950999,-8.75E-10,,
,3.952999,-8.92E-10,,
,3.954999,-9.08E-10,,
,3.956999,-9.24E-10,,
,3.958999,-9.39E-10,,
,3.960999,-9.54E-10,,
,3.962999,-9.69E-10,,
,3.964999,-9.84E-10,,
,3.966999,-9.99E-10,,
,3.968999,-1.01E-09,,
,3.970999,-1.03E-09,,
,3.972999,-1.04E-09,,
,3.974999,-1.05E-09,,
,3.976999,-1.06E-09,,
,3.978999,-1.07E-09,,
,3.980999,-1.08E-09,,
,3.982999,-1.09E-09,,
,3.984999,-1.10E-09,,
,3.986999,-1.10E-09,,
,3.988999,-1.11E-09,,
,3.990999,-1.11E-09,,
,3.992999,-1.11E-09,,
,3.994999,-1.12E-09,,
,3.996999,-1.12E-09,,
,3.998999,-1.12E-09,,
,4.000999,-1.12E-09,,
,4.002999,-1.12E-09,,
,4.004999,-1.12E-09,,
,4.006999,-1.11E-09,,
,4.008999,-1.11E-09,,
,4.010999,-1.10E-09,,
,4.012999,-1.10E-09,,
,4.014999,-1.09E-09,,
,4.016999,-1.08E-09,,
,4.018999,-1.08E-09,,
,4.020999,-1.07E-09,,
,4.022999,-1.06E-09,,
,4.024999,-1.05E-09,,
,4.026999,-1.04E-09,,
,4.028999,-1.03E-09,,
,4.030999,-1.02E-09,,
,4.032999,-1.01E-09,,
,4.034999,-1.00E-09,,
,4.036999,-9.90E-10,,
,4.038999,-9.79E-10,,
,4.040999,-9.67E-10,,
,4.042999,-9.54E-10,,
,4.044999,-9.42E-10,,
,4.046999,-9.30E-10,,
,4.048999,-9.18E-10,,
,4.050999,-9.06E-10,,
,4.052999,-8.94E-10,,
,4.054999,-8.82E-10,,
,4.056999,-8.70E-10,,
,4.058999,-8.57E-10,,
,4.060999,-8.45E-10,,
,4.062999,-8.33E-10,,
,4.064999,-8.22E-10,,
,4.066999,-8.11E-10,,
,4.068999,-8.01E-10,,
,4.070999,-7.91E-10,,
,4.072999,-7.81E-10,,
,4.074999,-7.71E-10,,
,4.076999,-7.62E-10,,
,4.078999,-7.53E-10,,
,4.080999,-7.45E-10,,
,4.082999,-7.38E-10,,
,4.084999,-7.32E-10,,
,4.086999,-7.26E-10,,
,4.088999,-7.20E-10,,
,4.090999,-7.15E-10,,
,4.092999,-7.10E-10,,
,4.094999,-7.06E-10,,
,4.096999,-7.03E-10,,
,4.098999,-7.01E-10,,
,4.100999,-6.99E-10,,
,4.102999,-6.98E-10,,
,4.104999,-6.97E-10,,
,4.106999,-6.96E-10,,
,4.108999,-6.95E-10,,
,4.110999,-6.95E-10,,
,4.112999,-6.95E-10,,
,4.114999,-6.96E-10,,
,4.116999,-6.97E-10,,
,4.118999,-6.98E-10,,
,4.120999,-6.99E-10,,
,4.122999,-6.99E-10,,
,4.124999,-7.00E-10,,
,4.126999,-7.01E-10,,
,4.128999,-7.02E-10,,
,4.130999,-7.03E-10,,
,4.132999,-7.04E-10,,
,4.134999,-7.05E-10,,
,4.136999,-7.06E-10,,
,4.138999,-7.06E-10,,
,4.140999,-7.05E-10,,
,4.142999,-7.05E-10,,
,4.144999,-7.05E-10,,
,4.146999,-7.05E-10,,
,4.148999,-7.06E-10,,
,4.150999,-7.06E-10,,
,4.152999,-7.07E-10,,
,4.154999,-7.07E-10,,
,4.156999,-7.07E-10,,
,4.158999,-7.06E-10,,
,4.160999,-7.06E-10,,
,4.162999,-7.06E-10,,
,4.164999,-7.07E-10,,
,4.166999,-7.08E-10,,
,4.168999,-7.08E-10,,
,4.170999,-7.08E-10,,
,4.172999,-7.07E-10,,
,4.174999,-7.07E-10,,
,4.176999,-7.07E-10,,
,4.178999,-7.07E-10,,
,4.180999,-7.07E-10,,
,4.182999,-7.07E-10,,
,4.184999,-7.07E-10,,
,4.186999,-7.07E-10,,
,4.188999,-7.06E-10,,
,4.190999,-7.05E-10,,
,4.192999,-7.04E-10,,
,4.194999,-7.03E-10,,
,4.196999,-7.02E-10,,
,4.198999,-7.01E-10,,
,4.200999,-6.99E-10,,
,4.202999,-6.96E-10,,
,4.204999,-6.93E-10,,
,4.206999,-6.90E-10,,
,4.208999,-6.85E-10,,
,4.210999,-6.81E-10,,
,4.212999,-6.75E-10,,
,4.214999,-6.70E-10,,
,4.216999,-6.64E-10,,
,4.218999,-6.57E-10,,
,4.220999,-6.49E-10,,
,4.222999,-6.40E-10,,
,4.224999,-6.30E-10,,
,4.226999,-6.19E-10,,
,4.228999,-6.07E-10,,
,4.230999,-5.95E-10,,
,4.232999,-5.82E-10,,
,4.234999,-5.68E-10,,
,4.236999,-5.53E-10,,
,4.238999,-5.37E-10,,
,4.240999,-5.19E-10,,
,4.242999,-5.01E-10,,
,4.244999,-4.81E-10,,
,4.246999,-4.61E-10,,
,4.248999,-4.40E-10,,
,4.250999,-4.19E-10,,
,4.252999,-3.96E-10,,
,4.254999,-3.72E-10,,
,4.256999,-3.46E-10,,
,4.258999,-3.20E-10,,
,4.260999,-2.92E-10,,
,4.262999,-2.65E-10,,
,4.264999,-2.36E-10,,
,4.266999,-2.07E-10,,
,4.268999,-1.77E-10,,
,4.270999,-1.45E-10,,
,4.272999,-1.12E-10,,
,4.274999,-7.76E-11,,
,4.276999,-4.23E-11,,
,4.278999,-6.36E-12,,
,4.280999,3.06E-11,,
,4.282999,6.83E-11,,
,4.284999,1.07E-10,,
,4.286999,1.47E-10,,
,4.288999,1.89E-10,,
,4.290999,2.33E-10,,
,4.292999,2.78E-10,,
,4.294999,3.24E-10,,
,4.296999,3.72E-10,,
,4.298999,4.19E-10,,
,4.300999,4.69E-10,,
,4.302999,5.20E-10,,
,4.304999,5.72E-10,,
,4.306999,6.26E-10,,
,4.308999,6.82E-10,,
,4.310999,7.39E-10,,
,4.312999,7.97E-10,,
,4.314999,8.55E-10,,
,4.316999,9.15E-10,,
,4.318999,9.76E-10,,
,4.320999,1.04E-09,,
,4.322999,1.10E-09,,
,4.324999,1.17E-09,,
,4.326999,1.23E-09,,
,4.328999,1.30E-09,,
,4.330999,1.36E-09,,
,4.332999,1.43E-09,,
,4.334999,1.50E-09,,
,4.336999,1.56E-09,,
,4.338999,1.63E-09,,
,4.340999,1.70E-09,,
,4.342999,1.77E-09,,
,4.344999,1.84E-09,,
,4.346999,1.90E-09,,
,4.348999,1.97E-09,,
,4.350999,2.04E-09,,
,4.352999,2.10E-09,,
,4.354999,2.17E-09,,
,4.356999,2.23E-09,,
,4.358999,2.30E-09,,
,4.360999,2.36E-09,,
,4.362999,2.42E-09,,
,4.364999,2.49E-09,,
,4.366999,2.54E-09,,
,4.368999,2.60E-09,,
,4.370999,2.66E-09,,
,4.372999,2.71E-09,,
,4.374999,2.77E-09,,
,4.376999,2.82E-09,,
,4.378999,2.87E-09,,
,4.380999,2.92E-09,,
,4.382999,2.96E-09,,
,4.384999,3.01E-09,,
,4.386999,3.05E-09,,
,4.388999,3.09E-09,,
,4.390999,3.13E-09,,
,4.392999,3.17E-09,,
,4.394999,3.20E-09,,
,4.396999,3.24E-09,,
,4.398999,3.27E-09,,
,4.400999,3.30E-09,,
,4.402999,3.33E-09,,
,4.404999,3.35E-09,,
,4.406999,3.38E-09,,
,4.408999,3.40E-09,,
,4.410999,3.42E-09,,
,4.412999,3.44E-09,,
,4.414999,3.46E-09,,
,4.416999,3.48E-09,,
,4.418999,3.49E-09,,
,4.420999,3.51E-09,,
,4.422999,3.52E-09,,
,4.424999,3.53E-09,,
,4.426999,3.54E-09,,
,4.428999,3.55E-09,,
,4.430999,3.56E-09,,
,4.432999,3.56E-09,,
,4.434999,3.57E-09,,
,4.436999,3.57E-09,,
,4.438999,3.57E-09,,
,4.440999,3.57E-09,,
,4.442999,3.57E-09,,
,4.444999,3.57E-09,,
,4.446999,3.56E-09,,
,4.448999,3.56E-09,,
,4.450999,3.55E-09,,
,4.452999,3.54E-09,,
,4.454999,3.53E-09,,
,4.456999,3.52E-09,,
,4.458999,3.51E-09,,
,4.460999,3.50E-09,,
,4.462999,3.49E-09,,
,4.464999,3.47E-09,,
,4.466999,3.46E-09,,
,4.468999,3.44E-09,,
,4.470999,3.42E-09,,
,4.472999,3.41E-09,,
,4.474999,3.39E-09,,
,4.476999,3.37E-09,,
,4.478999,3.35E-09,,
,4.480999,3.32E-09,,
,4.482999,3.30E-09,,
,4.484999,3.27E-09,,
,4.486999,3.25E-09,,
,4.488999,3.22E-09,,
,4.490999,3.20E-09,,
,4.492999,3.17E-09,,
,4.494999,3.14E-09,,
,4.496999,3.11E-09,,
,4.498999,3.08E-09,,
,4.500999,3.05E-09,,
,4.502999,3.02E-09,,
,4.504999,2.99E-09,,
,4.506999,2.95E-09,,
,4.508999,2.92E-09,,
,4.510999,2.89E-09,,
,4.512999,2.85E-09,,
,4.514999,2.82E-09,,
,4.516999,2.78E-09,,
,4.518999,2.74E-09,,
,4.520999,2.71E-09,,
,4.522999,2.67E-09,,
,4.524999,2.63E-09,,
,4.526999,2.59E-09,,
,4.528999,2.55E-09,,
,4.530999,2.51E-09,,
,4.532999,2.47E-09,,
,4.534999,2.43E-09,,
,4.536999,2.39E-09,,
,4.538999,2.35E-09,,
,4.540999,2.31E-09,,
,4.542999,2.27E-09,,
,4.544999,2.23E-09,,
,4.546999,2.19E-09,,
,4.548999,2.15E-09,,
,4.550999,2.10E-09,,
,4.552999,2.06E-09,,
,4.554999,2.02E-09,,
,4.556999,1.98E-09,,
,4.558999,1.94E-09,,
,4.560999,1.90E-09,,
,4.562999,1.86E-09,,
,4.564999,1.82E-09,,
,4.566999,1.78E-09,,
,4.568999,1.74E-09,,
,4.570999,1.70E-09,,
,4.572999,1.66E-09,,
,4.574999,1.62E-09,,
,4.576999,1.59E-09,,
,4.578999,1.55E-09,,
,4.580999,1.51E-09,,
,4.582999,1.47E-09,,
,4.584999,1.44E-09,,
,4.586999,1.40E-09,,
,4.588999,1.37E-09,,
,4.590999,1.33E-09,,
,4.592999,1.30E-09,,
,4.594999,1.27E-09,,
,4.596999,1.23E-09,,
,4.598999,1.20E-09,,
,4.600999,1.17E-09,,
,4.602999,1.13E-09,,
,4.604999,1.10E-09,,
,4.606999,1.07E-09,,
,4.608999,1.04E-09,,
,4.610999,1.01E-09,,
,4.612999,9.82E-10,,
,4.614999,9.53E-10,,
,4.616999,9.23E-10,,
,4.618999,8.94E-10,,
,4.620999,8.65E-10,,
,4.622999,8.38E-10,,
,4.624999,8.11E-10,,
,4.626999,7.84E-10,,
,4.628999,7.58E-10,,
,4.630999,7.31E-10,,
,4.632999,7.04E-10,,
,4.634999,6.78E-10,,
,4.636999,6.52E-10,,
,4.638999,6.26E-10,,
,4.640999,6.01E-10,,
,4.642999,5.77E-10,,
,4.644999,5.53E-10,,
,4.646999,5.29E-10,,
,4.648999,5.04E-10,,
,4.650999,4.80E-10,,
,4.652999,4.55E-10,,
,4.654999,4.32E-10,,
,4.656999,4.09E-10,,
,4.658999,3.86E-10,,
,4.660999,3.64E-10,,
,4.662999,3.41E-10,,
,4.664999,3.18E-10,,
,4.666999,2.96E-10,,
,4.668999,2.73E-10,,
,4.670999,2.50E-10,,
,4.672999,2.29E-10,,
,4.674999,2.08E-10,,
,4.676999,1.88E-10,,
,4.678999,1.68E-10,,
,4.680999,1.47E-10,,
,4.682999,1.27E-10,,
,4.684999,1.06E-10,,
,4.686999,8.63E-11,,
,4.688999,6.76E-11,,
,4.690999,4.96E-11,,
,4.692999,3.23E-11,,
,4.694999,1.53E-11,,
,4.696999,-1.31E-12,,
,4.698999,-1.81E-11,,
,4.700999,-3.46E-11,,
,4.702999,-5.03E-11,,
,4.704999,-6.51E-11,,
,4.706999,-7.88E-11,,
,4.708999,-9.16E-11,,
,4.710999,-1.04E-10,,
,4.712999,-1.15E-10,,
,4.714999,-1.27E-10,,
,4.716999,-1.39E-10,,
,4.718999,-1.50E-10,,
,4.720999,-1.60E-10,,
,4.722999,-1.69E-10,,
,4.724999,-1.77E-10,,
,4.726999,-1.85E-10,,
,4.728999,-1.93E-10,,
,4.730999,-2.00E-10,,
,4.732999,-2.08E-10,,
,4.734999,-2.16E-10,,
,4.736999,-2.23E-10,,
,4.738999,-2.30E-10,,
,4.740999,-2.36E-10,,
,4.742999,-2.42E-10,,
,4.744999,-2.48E-10,,
,4.746999,-2.55E-10,,
,4.748999,-2.62E-10,,
,4.750999,-2.69E-10,,
,4.752999,-2.77E-10,,
,4.754999,-2.84E-10,,
,4.756999,-2.91E-10,,
,4.758999,-2.98E-10,,
,4.760999,-3.05E-10,,
,4.762999,-3.13E-10,,
,4.764999,-3.22E-10,,
,4.766999,-3.32E-10,,
,4.768999,-3.43E-10,,
,4.770999,-3.53E-10,,
,4.772999,-3.63E-10,,
,4.774999,-3.74E-10,,
,4.776999,-3.85E-10,,
,4.778999,-3.96E-10,,
,4.780999,-4.09E-10,,
,4.782999,-4.22E-10,,
,4.784999,-4.36E-10,,
,4.786999,-4.50E-10,,
,4.788999,-4.65E-10,,
,4.790999,-4.79E-10,,
,4.792999,-4.94E-10,,
,4.794999,-5.09E-10,,
,4.796999,-5.24E-10,,
,4.798999,-5.41E-10,,
,4.800999,-5.58E-10,,
,4.802999,-5.76E-10,,
,4.804999,-5.94E-10,,
,4.806999,-6.12E-10,,
,4.808999,-6.29E-10,,
,4.810999,-6.47E-10,,
,4.812999,-6.66E-10,,
,4.814999,-6.85E-10,,
,4.816999,-7.05E-10,,
,4.818999,-7.26E-10,,
,4.820999,-7.46E-10,,
,4.822999,-7.66E-10,,
,4.824999,-7.85E-10,,
,4.826999,-8.05E-10,,
,4.828999,-8.25E-10,,
,4.830999,-8.46E-10,,
,4.832999,-8.67E-10,,
,4.834999,-8.89E-10,,
,4.836999,-9.10E-10,,
,4.838999,-9.31E-10,,
,4.840999,-9.51E-10,,
,4.842999,-9.71E-10,,
,4.844999,-9.91E-10,,
,4.846999,-1.01E-09,,
,4.848999,-1.03E-09,,
,4.850999,-1.05E-09,,
,4.852999,-1.08E-09,,
,4.854999,-1.10E-09,,
,4.856999,-1.12E-09,,
,4.858999,-1.14E-09,,
,4.860999,-1.15E-09,,
,4.862999,-1.17E-09,,
,4.864999,-1.19E-09,,
,4.866999,-1.21E-09,,
,4.868999,-1.23E-09,,
,4.870999,-1.25E-09,,
,4.872999,-1.27E-09,,
,4.874999,-1.28E-09,,
,4.876999,-1.30E-09,,
,4.878999,-1.32E-09,,
,4.880999,-1.33E-09,,
,4.882999,-1.35E-09,,
,4.884999,-1.36E-09,,
,4.886999,-1.38E-09,,
,4.888999,-1.39E-09,,
,4.890999,-1.40E-09,,
,4.892999,-1.41E-09,,
,4.894999,-1.42E-09,,
,4.896999,-1.44E-09,,
,4.898999,-1.45E-09,,
,4.900999,-1.46E-09,,
,4.902999,-1.47E-09,,
,4.904999,-1.47E-09,,
,4.906999,-1.48E-09,,
,4.908999,-1.49E-09,,
,4.910999,-1.49E-09,,
,4.912999,-1.50E-09,,
,4.914999,-1.50E-09,,
,4.916999,-1.51E-09,,
,4.918999,-1.51E-09,,
,4.920999,-1.52E-09,,
,4.922999,-1.52E-09,,
,4.924999,-1.52E-09,,
,4.926999,-1.52E-09,,
,4.928999,-1.52E-09,,
,4.930999,-1.52E-09,,
,4.932999,-1.52E-09,,
,4.934999,-1.52E-09,,
,4.936999,-1.52E-09,,
,4.938999,-1.52E-09,,
,4.940999,-1.52E-09,,
,4.942999,-1.52E-09,,
,4.944999,-1.51E-09,,
,4.946999,-1.51E-09,,
,4.948999,-1.51E-09,,
,4.950999,-1.50E-09,,
,4.952999,-1.50E-09,,
,4.954999,-1.49E-09,,
,4.956999,-1.49E-09,,
,4.958999,-1.48E-09,,
,4.960999,-1.48E-09,,
,4.962999,-1.47E-09,,
,4.964999,-1.46E-09,,
,4.966999,-1.46E-09,,
,4.968999,-1.45E-09,,
,4.970999,-1.44E-09,,
,4.972999,-1.43E-09,,
,4.974999,-1.43E-09,,
,4.976999,-1.42E-09,,
,4.978999,-1.41E-09,,
,4.980999,-1.40E-09,,
,4.982999,-1.39E-09,,
,4.984999,-1.38E-09,,
,4.986999,-1.37E-09,,
,4.988999,-1.36E-09,,
,4.990999,-1.35E-09,,
,4.992999,-1.34E-09,,
,4.994999,-1.32E-09,,
,4.996999,-1.31E-09,,
,4.998999,-1.30E-09,,
,5.000999,-1.29E-09,,
,5.002999,-1.28E-09,,
,5.004999,-1.27E-09,,
,5.006999,-1.26E-09,,
,5.008999,-1.25E-09,,
,5.010999,-1.23E-09,,
,5.012999,-1.22E-09,,
,5.014999,-1.21E-09,,
,5.016999,-1.20E-09,,
,5.018999,-1.19E-09,,
,5.020999,-1.17E-09,,
,5.022999,-1.16E-09,,
,5.024999,-1.15E-09,,
,5.026999,-1.14E-09,,
,5.028999,-1.12E-09,,
,5.030999,-1.11E-09,,
,5.032999,-1.10E-09,,
,5.034999,-1.09E-09,,
,5.036999,-1.08E-09,,
,5.038999,-1.07E-09,,
,5.040999,-1.06E-09,,
,5.042999,-1.05E-09,,
,5.044999,-1.03E-09,,
,5.046999,-1.02E-09,,
,5.048999,-1.01E-09,,
,5.050999,-1.00E-09,,
,5.052999,-9.91E-10,,
,5.054999,-9.81E-10,,
,5.056999,-9.70E-10,,
,5.058999,-9.59E-10,,
,5.060999,-9.48E-10,,
,5.062999,-9.37E-10,,
,5.064999,-9.27E-10,,
,5.066999,-9.18E-10,,
,5.068999,-9.09E-10,,
,5.070999,-9.01E-10,,
,5.072999,-8.91E-10,,
,5.074999,-8.82E-10,,
,5.076999,-8.71E-10,,
,5.078999,-8.62E-10,,
,5.080999,-8.53E-10,,
,5.082999,-8.45E-10,,
,5.084999,-8.38E-10,,
,5.086999,-8.31E-10,,
,5.088999,-8.23E-10,,
,5.090999,-8.15E-10,,
,5.092999,-8.07E-10,,
,5.094999,-7.99E-10,,
,5.096999,-7.92E-10,,
,5.098999,-7.86E-10,,
,5.100999,-7.80E-10,,
,5.102999,-7.75E-10,,
,5.104999,-7.69E-10,,
,5.106999,-7.64E-10,,
,5.108999,-7.57E-10,,
,5.110999,-7.51E-10,,
,5.112999,-7.45E-10,,
,5.114999,-7.40E-10,,
,5.116999,-7.36E-10,,
,5.118999,-7.32E-10,,
,5.120999,-7.28E-10,,
,5.122999,-7.24E-10,,
,5.124999,-7.18E-10,,
,5.126999,-7.13E-10,,
,5.128999,-7.08E-10,,
,5.130999,-7.04E-10,,
,5.132999,-7.00E-10,,
,5.134999,-6.97E-10,,
,5.136999,-6.94E-10,,
,5.138999,-6.89E-10,,
,5.140999,-6.85E-10,,
,5.142999,-6.79E-10,,
,5.144999,-6.74E-10,,
,5.146999,-6.69E-10,,
,5.148999,-6.65E-10,,
,5.150999,-6.61E-10,,
,5.152999,-6.57E-10,,
,5.154999,-6.53E-10,,
,5.156999,-6.47E-10,,
,5.158999,-6.41E-10,,
,5.160999,-6.34E-10,,
,5.162999,-6.28E-10,,
,5.164999,-6.22E-10,,
,5.166999,-6.17E-10,,
,5.168999,-6.12E-10,,
,5.170999,-6.06E-10,,
,5.172999,-5.99E-10,,
,5.174999,-5.91E-10,,
,5.176999,-5.84E-10,,
,5.178999,-5.76E-10,,
,5.180999,-5.68E-10,,
,5.182999,-5.61E-10,,
,5.184999,-5.54E-10,,
,5.186999,-5.47E-10,,
,5.188999,-5.39E-10,,
,5.190999,-5.30E-10,,
,5.192999,-5.21E-10,,
,5.194999,-5.11E-10,,
,5.196999,-5.02E-10,,
,5.198999,-4.94E-10,,
,5.200999,-4.86E-10,,
,5.202999,-4.77E-10,,
,5.204999,-4.69E-10,,
,5.206999,-4.59E-10,,
,5.208999,-4.49E-10,,
,5.210999,-4.39E-10,,
,5.212999,-4.30E-10,,
,5.214999,-4.20E-10,,
,5.216999,-4.12E-10,,
,5.218999,-4.04E-10,,
,5.220999,-3.95E-10,,
,5.222999,-3.86E-10,,
,5.224999,-3.77E-10,,
,5.226999,-3.67E-10,,
,5.228999,-3.58E-10,,
,5.230999,-3.49E-10,,
,5.232999,-3.42E-10,,
,5.234999,-3.35E-10,,
,5.236999,-3.28E-10,,
,5.238999,-3.20E-10,,
,5.240999,-3.13E-10,,
,5.242999,-3.05E-10,,
,5.244999,-2.97E-10,,
,5.246999,-2.91E-10,,
,5.248999,-2.85E-10,,
,5.250999,-2.80E-10,,
,5.252999,-2.76E-10,,
,5.254999,-2.71E-10,,
,5.256999,-2.66E-10,,
,5.258999,-2.61E-10,,
,5.260999,-2.56E-10,,
,5.262999,-2.52E-10,,
,5.264999,-2.49E-10,,
,5.266999,-2.47E-10,,
,5.268999,-2.45E-10,,
,5.270999,-2.43E-10,,
,5.272999,-2.40E-10,,
,5.274999,-2.38E-10,,
,5.276999,-2.35E-10,,
,5.278999,-2.33E-10,,
,5.280999,-2.32E-10,,
,5.282999,-2.32E-10,,
,5.284999,-2.32E-10,,
,5.286999,-2.32E-10,,
,5.288999,-2.32E-10,,
,5.290999,-2.31E-10,,
,5.292999,-2.30E-10,,
,5.294999,-2.30E-10,,
,5.296999,-2.29E-10,,
,5.298999,-2.30E-10,,
,5.300999,-2.31E-10,,
,5.302999,-2.33E-10,,
,5.304999,-2.34E-10,,
,5.306999,-2.34E-10,,
,5.308999,-2.34E-10,,
,5.310999,-2.34E-10,,
,5.312999,-2.34E-10,,
,5.314999,-2.35E-10,,
,5.316999,-2.36E-10,,
,5.318999,-2.39E-10,,
,5.320999,-2.40E-10,,
,5.322999,-2.42E-10,,
,5.324999,-2.42E-10,,
,5.326999,-2.43E-10,,
,5.328999,-2.43E-10,,
,5.330999,-2.44E-10,,
,5.332999,-2.45E-10,,
,5.334999,-2.47E-10,,
,5.336999,-2.49E-10,,
,5.338999,-2.49E-10,,
,5.340999,-2.49E-10,,
,5.342999,-2.48E-10,,
,5.344999,-2.47E-10,,
,5.346999,-2.46E-10,,
,5.348999,-2.46E-10,,
,5.350999,-2.46E-10,,
,5.352999,-2.45E-10,,
,5.354999,-2.44E-10,,
,5.356999,-2.42E-10,,
,5.358999,-2.39E-10,,
,5.360999,-2.36E-10,,
,5.362999,-2.33E-10,,
,5.364999,-2.30E-10,,
,5.366999,-2.28E-10,,
,5.368999,-2.25E-10,,
,5.370999,-2.22E-10,,
,5.372999,-2.18E-10,,
,5.374999,-2.14E-10,,
,5.376999,-2.09E-10,,
,5.378999,-2.04E-10,,
,5.380999,-1.99E-10,,
,5.382999,-1.95E-10,,
,5.384999,-1.92E-10,,
,5.386999,-1.88E-10,,
,5.388999,-1.83E-10,,
,5.390999,-1.78E-10,,
,5.392999,-1.72E-10,,
,5.394999,-1.67E-10,,
,5.396999,-1.61E-10,,
,5.398999,-1.57E-10,,
,5.400999,-1.52E-10,,
,5.402999,-1.48E-10,,
,5.404999,-1.44E-10,,
,5.406999,-1.38E-10,,
,5.408999,-1.33E-10,,
,5.410999,-1.27E-10,,
,5.412999,-1.21E-10,,
,5.414999,-1.17E-10,,
,5.416999,-1.12E-10,,
,5.418999,-1.08E-10,,
,5.420999,-1.04E-10,,
,5.422999,-9.92E-11,,
,5.424999,-9.39E-11,,
,5.426999,-8.81E-11,,
,5.428999,-8.25E-11,,
,5.430999,-7.74E-11,,
,5.432999,-7.36E-11,,
,5.434999,-6.98E-11,,
,5.436999,-6.63E-11,,
,5.438999,-6.18E-11,,
,5.440999,-5.67E-11,,
,5.442999,-5.11E-11,,
,5.444999,-4.55E-11,,
,5.446999,-4.06E-11,,
,5.448999,-3.62E-11,,
,5.450999,-3.26E-11,,
,5.452999,-2.87E-11,,
,5.454999,-2.45E-11,,
,5.456999,-1.96E-11,,
,5.458999,-1.41E-11,,
,5.460999,-8.61E-12,,
,5.462999,-3.35E-12,,
,5.464999,1.37E-12,,
,5.466999,5.66E-12,,
,5.468999,9.64E-12,,
,5.470999,1.38E-11,,
,5.472999,1.88E-11,,
,5.474999,2.42E-11,,
,5.476999,2.99E-11,,
,5.478999,3.53E-11,,
,5.480999,4.03E-11,,
,5.482999,4.47E-11,,
,5.484999,4.87E-11,,
,5.486999,5.31E-11,,
,5.488999,5.77E-11,,
,5.490999,6.33E-11,,
,5.492999,6.90E-11,,
,5.494999,7.49E-11,,
,5.496999,8.05E-11,,
,5.498999,8.51E-11,,
,5.500999,8.95E-11,,
,5.502999,9.34E-11,,
,5.504999,9.80E-11,,
,5.506999,1.03E-10,,
,5.508999,1.09E-10,,
,5.510999,1.14E-10,,
,5.512999,1.19E-10,,
,5.514999,1.24E-10,,
,5.516999,1.29E-10,,
,5.518999,1.33E-10,,
,5.520999,1.37E-10,,
,5.522999,1.41E-10,,
,5.524999,1.46E-10,,
,5.526999,1.52E-10,,
,5.528999,1.58E-10,,
,5.530999,1.62E-10,,
,5.532999,1.66E-10,,
,5.534999,1.70E-10,,
,5.536999,1.73E-10,,
,5.538999,1.77E-10,,
,5.540999,1.82E-10,,
,5.542999,1.87E-10,,
,5.544999,1.93E-10,,
,5.546999,1.97E-10,,
,5.548999,2.01E-10,,
,5.550999,2.04E-10,,
,5.552999,2.07E-10,,
,5.554999,2.11E-10,,
,5.556999,2.16E-10,,
,5.558999,2.20E-10,,
,5.560999,2.25E-10,,
,5.562999,2.30E-10,,
,5.564999,2.34E-10,,
,5.566999,2.37E-10,,
,5.568999,2.40E-10,,
,5.570999,2.43E-10,,
,5.572999,2.48E-10,,
,5.574999,2.52E-10,,
,5.576999,2.57E-10,,
,5.578999,2.62E-10,,
,5.580999,2.67E-10,,
,5.582999,2.70E-10,,
,5.584999,2.74E-10,,
,5.586999,2.77E-10,,
,5.588999,2.81E-10,,
,5.590999,2.86E-10,,
,5.592999,2.91E-10,,
,5.594999,2.96E-10,,
,5.596999,3.01E-10,,
,5.598999,3.06E-10,,
,5.600999,3.09E-10,,
,5.602999,3.13E-10,,
,5.604999,3.17E-10,,
,5.606999,3.21E-10,,
,5.608999,3.26E-10,,
,5.610999,3.32E-10,,
,5.612999,3.37E-10,,
,5.614999,3.41E-10,,
,5.616999,3.45E-10,,
,5.618999,3.48E-10,,
,5.620999,3.52E-10,,
,5.622999,3.56E-10,,
,5.624999,3.61E-10,,
,5.626999,3.66E-10,,
,5.628999,3.71E-10,,
,5.630999,3.75E-10,,
,5.632999,3.79E-10,,
,5.634999,3.82E-10,,
,5.636999,3.85E-10,,
,5.638999,3.88E-10,,
,5.640999,3.92E-10,,
,5.642999,3.97E-10,,
,5.644999,4.01E-10,,
,5.646999,4.05E-10,,
,5.648999,4.08E-10,,
,5.650999,4.10E-10,,
,5.652999,4.13E-10,,
,5.654999,4.15E-10,,
,5.656999,4.18E-10,,
,5.658999,4.21E-10,,
,5.660999,4.25E-10,,
,5.662999,4.28E-10,,
,5.664999,4.30E-10,,
,5.666999,4.32E-10,,
,5.668999,4.33E-10,,
,5.670999,4.34E-10,,
,5.672999,4.36E-10,,
,5.674999,4.38E-10,,
,5.676999,4.41E-10,,
,5.678999,4.43E-10,,
,5.680999,4.44E-10,,
,5.682999,4.44E-10,,
,5.684999,4.44E-10,,
,5.686999,4.44E-10,,
,5.688999,4.45E-10,,
,5.690999,4.46E-10,,
,5.692999,4.47E-10,,
,5.694999,4.48E-10,,
,5.696999,4.48E-10,,
,5.698999,4.48E-10,,
,5.700999,4.47E-10,,
,5.702999,4.46E-10,,
,5.704999,4.45E-10,,
,5.706999,4.44E-10,,
,5.708999,4.45E-10,,
,5.710999,4.45E-10,,
,5.712999,4.45E-10,,
,5.714999,4.44E-10,,
,5.716999,4.42E-10,,
,5.718999,4.40E-10,,
,5.720999,4.39E-10,,
,5.722999,4.37E-10,,
,5.724999,4.37E-10,,
,5.726999,4.37E-10,,
,5.728999,4.36E-10,,
,5.730999,4.36E-10,,
,5.732999,4.35E-10,,
,5.734999,4.33E-10,,
,5.736999,4.31E-10,,
,5.738999,4.30E-10,,
,5.740999,4.30E-10,,
,5.742999,4.30E-10,,
,5.744999,4.30E-10,,
,5.746999,4.31E-10,,
,5.748999,4.30E-10,,
,5.750999,4.29E-10,,
,5.752999,4.28E-10,,
,5.754999,4.28E-10,,
,5.756999,4.28E-10,,
,5.758999,4.30E-10,,
,5.760999,4.31E-10,,
,5.762999,4.33E-10,,
,5.764999,4.34E-10,,
,5.766999,4.35E-10,,
,5.768999,4.35E-10,,
,5.770999,4.36E-10,,
,5.772999,4.37E-10,,
,5.774999,4.40E-10,,
,5.776999,4.43E-10,,
,5.778999,4.46E-10,,
,5.780999,4.49E-10,,
,5.782999,4.52E-10,,
,5.784999,4.54E-10,,
,5.786999,4.57E-10,,
,5.788999,4.59E-10,,
,5.790999,4.64E-10,,
,5.792999,4.68E-10,,
,5.794999,4.73E-10,,
,5.796999,4.78E-10,,
,5.798999,4.82E-10,,
,5.800999,4.85E-10,,
,5.802999,4.89E-10,,
,5.804999,4.93E-10,,
,5.806999,4.97E-10,,
,5.808999,5.02E-10,,
,5.810999,5.07E-10,,
,5.812999,5.13E-10,,
,5.814999,5.17E-10,,
,5.816999,5.21E-10,,
,5.818999,5.24E-10,,
,5.820999,5.28E-10,,
,5.822999,5.32E-10,,
,5.824999,5.36E-10,,
,5.826999,5.41E-10,,
,5.828999,5.47E-10,,
,5.830999,5.51E-10,,
,5.832999,5.54E-10,,
,5.834999,5.57E-10,,
,5.836999,5.59E-10,,
,5.838999,5.63E-10,,
,5.840999,5.66E-10,,
,5.842999,5.71E-10,,
,5.844999,5.75E-10,,
,5.846999,5.79E-10,,
,5.848999,5.82E-10,,
,5.850999,5.85E-10,,
,5.852999,5.87E-10,,
,5.854999,5.89E-10,,
,5.856999,5.93E-10,,
,5.858999,5.97E-10,,
,5.860999,6.01E-10,,
,5.862999,6.05E-10,,
,5.864999,6.08E-10,,
,5.866999,6.10E-10,,
,5.868999,6.11E-10,,
,5.870999,6.14E-10,,
,5.872999,6.16E-10,,
,5.874999,6.20E-10,,
,5.876999,6.23E-10,,
,5.878999,6.27E-10,,
,5.880999,6.29E-10,,
,5.882999,6.31E-10,,
,5.884999,6.33E-10,,
,5.886999,6.34E-10,,
,5.888999,6.36E-10,,
,5.890999,6.39E-10,,
,5.892999,6.42E-10,,
,5.894999,6.45E-10,,
,5.896999,6.48E-10,,
,5.898999,6.50E-10,,
,5.900999,6.51E-10,,
,5.902999,6.52E-10,,
,5.904999,6.53E-10,,
,5.906999,6.55E-10,,
,5.908999,6.58E-10,,
,5.910999,6.61E-10,,
,5.912999,6.64E-10,,
,5.914999,6.66E-10,,
,5.916999,6.67E-10,,
,5.918999,6.68E-10,,
,5.920999,6.69E-10,,
,5.922999,6.71E-10,,
,5.924999,6.73E-10,,
,5.926999,6.76E-10,,
,5.928999,6.79E-10,,
,5.930999,6.81E-10,,
,5.932999,6.83E-10,,
,5.934999,6.84E-10,,
,5.936999,6.85E-10,,
,5.938999,6.87E-10,,
,5.940999,6.89E-10,,
,5.942999,6.92E-10,,
,5.944999,6.95E-10,,
,5.946999,6.98E-10,,
,5.948999,7.00E-10,,
,5.950999,7.02E-10,,
,5.952999,7.03E-10,,
,5.954999,7.05E-10,,
,5.956999,7.08E-10,,
,5.958999,7.11E-10,,
,5.960999,7.14E-10,,
,5.962999,7.17E-10,,
,5.964999,7.20E-10,,
,5.966999,7.22E-10,,
,5.968999,7.23E-10,,
,5.970999,7.25E-10,,
,5.972999,7.28E-10,,
,5.974999,7.31E-10,,
,5.976999,7.35E-10,,
,5.978999,7.39E-10,,
,5.980999,7.42E-10,,
,5.982999,7.44E-10,,
,5.984999,7.46E-10,,
,5.986999,7.47E-10,,
,5.988999,7.50E-10,,
,5.990999,7.53E-10,,
,5.992999,7.57E-10,,
,5.994999,7.61E-10,,
,5.996999,7.64E-10,,
,5.998999,7.67E-10,,
,6.000999,7.69E-10,,
,6.002999,7.71E-10,,
,6.004999,7.73E-10,,
,6.006999,7.76E-10,,
,6.008999,7.80E-10,,
,6.010999,7.83E-10,,
,6.012999,7.87E-10,,
,6.014999,7.90E-10,,
,6.016999,7.92E-10,,
,6.018999,7.93E-10,,
,6.020999,7.95E-10,,
,6.022999,7.98E-10,,
,6.024999,8.00E-10,,
,6.026999,8.04E-10,,
,6.028999,8.07E-10,,
,6.030999,8.10E-10,,
,6.032999,8.12E-10,,
,6.034999,8.13E-10,,
,6.036999,8.15E-10,,
,6.038999,8.17E-10,,
,6.040999,8.19E-10,,
,6.042999,8.22E-10,,
,6.044999,8.26E-10,,
,6.046999,8.29E-10,,
,6.048999,8.31E-10,,
,6.050999,8.32E-10,,
,6.052999,8.33E-10,,
,6.054999,8.35E-10,,
,6.056999,8.37E-10,,
,6.058999,8.40E-10,,
,6.060999,8.44E-10,,
,6.062999,8.46E-10,,
,6.064999,8.49E-10,,
,6.066999,8.50E-10,,
,6.068999,8.51E-10,,
,6.070999,8.53E-10,,
,6.072999,8.55E-10,,
,6.074999,8.57E-10,,
,6.076999,8.61E-10,,
,6.078999,8.64E-10,,
,6.080999,8.66E-10,,
,6.082999,8.68E-10,,
,6.084999,8.69E-10,,
,6.086999,8.70E-10,,
,6.088999,8.72E-10,,
,6.090999,8.74E-10,,
,6.092999,8.77E-10,,
,6.094999,8.80E-10,,
,6.096999,8.83E-10,,
,6.098999,8.85E-10,,
,6.100999,8.86E-10,,
,6.102999,8.87E-10,,
,6.104999,8.89E-10,,
,6.106999,8.91E-10,,
,6.108999,8.94E-10,,
,6.110999,8.97E-10,,
,6.112999,9.00E-10,,
,6.114999,9.03E-10,,
,6.116999,9.05E-10,,
,6.118999,9.06E-10,,
,6.120999,9.08E-10,,
,6.122999,9.10E-10,,
,6.124999,9.13E-10,,
,6.126999,9.17E-10,,
,6.128999,9.20E-10,,
,6.130999,9.22E-10,,
,6.132999,9.24E-10,,
,6.134999,9.26E-10,,
,6.136999,9.28E-10,,
,6.138999,9.29E-10,,
,6.140999,9.32E-10,,
,6.142999,9.35E-10,,
,6.144999,9.38E-10,,
,6.146999,9.41E-10,,
,6.148999,9.43E-10,,
,6.150999,9.44E-10,,
,6.152999,9.46E-10,,
,6.154999,9.48E-10,,
,6.156999,9.50E-10,,
,6.158999,9.53E-10,,
,6.160999,9.57E-10,,
,6.162999,9.59E-10,,
,6.164999,9.62E-10,,
,6.166999,9.64E-10,,
,6.168999,9.65E-10,,
,6.170999,9.66E-10,,
,6.172999,9.69E-10,,
,6.174999,9.71E-10,,
,6.176999,9.74E-10,,
,6.178999,9.77E-10,,
,6.180999,9.80E-10,,
,6.182999,9.81E-10,,
,6.184999,9.83E-10,,
,6.186999,9.84E-10,,
,6.188999,9.86E-10,,
,6.190999,9.88E-10,,
,6.192999,9.92E-10,,
,6.194999,9.95E-10,,
,6.196999,9.97E-10,,
,6.198999,9.99E-10,,
,6.200999,1.00E-09,,
,6.202999,1.00E-09,,
,6.204999,1.00E-09,,
,6.206999,1.01E-09,,
,6.208999,1.01E-09,,
,6.210999,1.01E-09,,
,6.212999,1.02E-09,,
,6.214999,1.02E-09,,
,6.216999,1.02E-09,,
,6.218999,1.02E-09,,
,6.220999,1.02E-09,,
,6.222999,1.02E-09,,
,6.224999,1.03E-09,,
,6.226999,1.03E-09,,
,6.228999,1.03E-09,,
,6.230999,1.04E-09,,
,6.232999,1.04E-09,,
,6.234999,1.04E-09,,
,6.236999,1.04E-09,,
,6.238999,1.04E-09,,
,6.240999,1.05E-09,,
,6.242999,1.05E-09,,
,6.244999,1.05E-09,,
,6.246999,1.06E-09,,
,6.248999,1.06E-09,,
,6.250999,1.06E-09,,
,6.252999,1.06E-09,,
,6.254999,1.06E-09,,
,6.256999,1.07E-09,,
,6.258999,1.07E-09,,
,6.260999,1.07E-09,,
,6.262999,1.07E-09,,
,6.264999,1.08E-09,,
,6.266999,1.08E-09,,
,6.268999,1.08E-09,,
,6.270999,1.08E-09,,
,6.272999,1.08E-09,,
,6.274999,1.08E-09,,
,6.276999,1.08E-09,,
,6.278999,1.09E-09,,
,6.280999,1.09E-09,,
,6.282999,1.09E-09,,
,6.284999,1.09E-09,,
,6.286999,1.09E-09,,
,6.288999,1.09E-09,,
,6.290999,1.09E-09,,
,6.292999,1.10E-09,,
,6.294999,1.10E-09,,
,6.296999,1.10E-09,,
,6.298999,1.10E-09,,
,6.300999,1.10E-09,,
,6.302999,1.10E-09,,
,6.304999,1.10E-09,,
,6.306999,1.10E-09,,
,6.308999,1.11E-09,,
,6.310999,1.11E-09,,
,6.312999,1.11E-09,,
,6.314999,1.11E-09,,
,6.316999,1.12E-09,,
,6.318999,1.12E-09,,
,6.320999,1.12E-09,,
,6.322999,1.12E-09,,
,6.324999,1.12E-09,,
,6.326999,1.12E-09,,
,6.328999,1.13E-09,,
,6.330999,1.13E-09,,
,6.332999,1.13E-09,,
,6.334999,1.13E-09,,
,6.336999,1.14E-09,,
,6.338999,1.14E-09,,
,6.340999,1.14E-09,,
,6.342999,1.14E-09,,
,6.344999,1.15E-09,,
,6.346999,1.15E-09,,
,6.348999,1.15E-09,,
,6.350999,1.16E-09,,
,6.352999,1.16E-09,,
,6.354999,1.16E-09,,
,6.356999,1.16E-09,,
,6.358999,1.17E-09,,
,6.360999,1.17E-09,,
,6.362999,1.18E-09,,
,6.364999,1.18E-09,,
,6.366999,1.18E-09,,
,6.368999,1.19E-09,,
,6.370999,1.19E-09,,
,6.372999,1.19E-09,,
,6.374999,1.20E-09,,
,6.376999,1.20E-09,,
,6.378999,1.21E-09,,
,6.380999,1.21E-09,,
,6.382999,1.21E-09,,
,6.384999,1.22E-09,,
,6.386999,1.22E-09,,
,6.388999,1.22E-09,,
,6.390999,1.23E-09,,
,6.392999,1.23E-09,,
,6.394999,1.23E-09,,
,6.396999,1.24E-09,,
,6.398999,1.24E-09,,
,6.400999,1.24E-09,,
,6.402999,1.24E-09,,
,6.404999,1.25E-09,,
,6.406999,1.25E-09,,
,6.408999,1.25E-09,,
,6.410999,1.26E-09,,
,6.412999,1.26E-09,,
,6.414999,1.26E-09,,
,6.416999,1.26E-09,,
,6.418999,1.26E-09,,
,6.420999,1.26E-09,,
,6.422999,1.26E-09,,
,6.424999,1.26E-09,,
,6.426999,1.26E-09,,
,6.428999,1.27E-09,,
,6.430999,1.27E-09,,
,6.432999,1.27E-09,,
,6.434999,1.26E-09,,
,6.436999,1.26E-09,,
,6.438999,1.26E-09,,
,6.440999,1.26E-09,,
,6.442999,1.26E-09,,
,6.444999,1.26E-09,,
,6.446999,1.26E-09,,
,6.448999,1.26E-09,,
,6.450999,1.25E-09,,
,6.452999,1.25E-09,,
,6.454999,1.25E-09,,
,6.456999,1.25E-09,,
,6.458999,1.24E-09,,
,6.460999,1.24E-09,,
,6.462999,1.24E-09,,
,6.464999,1.24E-09,,
,6.466999,1.23E-09,,
,6.468999,1.23E-09,,
,6.470999,1.23E-09,,
,6.472999,1.22E-09,,
,6.474999,1.22E-09,,
,6.476999,1.22E-09,,
,6.478999,1.21E-09,,
,6.480999,1.21E-09,,
,6.482999,1.21E-09,,
,6.484999,1.20E-09,,
,6.486999,1.20E-09,,
,6.488999,1.19E-09,,
,6.490999,1.19E-09,,
,6.492999,1.18E-09,,
,6.494999,1.18E-09,,
,6.496999,1.18E-09,,
,6.498999,1.17E-09,,
,6.500999,1.17E-09,,
,6.502999,1.16E-09,,
,6.504999,1.16E-09,,
,6.506999,1.15E-09,,
,6.508999,1.15E-09,,
,6.510999,1.14E-09,,
,6.512999,1.14E-09,,
,6.514999,1.14E-09,,
,6.516999,1.13E-09,,
,6.518999,1.12E-09,,
,6.520999,1.12E-09,,
,6.522999,1.11E-09,,
,6.524999,1.11E-09,,
,6.526999,1.10E-09,,
,6.528999,1.10E-09,,
,6.530999,1.09E-09,,
,6.532999,1.09E-09,,
,6.534999,1.08E-09,,
,6.536999,1.07E-09,,
,6.538999,1.07E-09,,
,6.540999,1.06E-09,,
,6.542999,1.05E-09,,
,6.544999,1.05E-09,,
,6.546999,1.04E-09,,
,6.548999,1.04E-09,,
,6.550999,1.03E-09,,
,6.552999,1.02E-09,,
,6.554999,1.01E-09,,
,6.556999,1.01E-09,,
,6.558999,9.99E-10,,
,6.560999,9.93E-10,,
,6.562999,9.86E-10,,
,6.564999,9.79E-10,,
,6.566999,9.71E-10,,
,6.568999,9.62E-10,,
,6.570999,9.54E-10,,
,6.572999,9.46E-10,,
,6.574999,9.38E-10,,
,6.576999,9.31E-10,,
,6.578999,9.24E-10,,
,6.580999,9.17E-10,,
,6.582999,9.08E-10,,
,6.584999,8.99E-10,,
,6.586999,8.89E-10,,
,6.588999,8.80E-10,,
,6.590999,8.72E-10,,
,6.592999,8.64E-10,,
,6.594999,8.56E-10,,
,6.596999,8.48E-10,,
,6.598999,8.39E-10,,
,6.600999,8.29E-10,,
,6.602999,8.19E-10,,
,6.604999,8.10E-10,,
,6.606999,8.01E-10,,
,6.608999,7.92E-10,,
,6.610999,7.84E-10,,
,6.612999,7.75E-10,,
,6.614999,7.66E-10,,
,6.616999,7.56E-10,,
,6.618999,7.46E-10,,
,6.620999,7.36E-10,,
,6.622999,7.27E-10,,
,6.624999,7.19E-10,,
,6.626999,7.11E-10,,
,6.628999,7.03E-10,,
,6.630999,6.94E-10,,
,6.632999,6.85E-10,,
,6.634999,6.76E-10,,
,6.636999,6.66E-10,,
,6.638999,6.58E-10,,
,6.640999,6.49E-10,,
,6.642999,6.42E-10,,
,6.644999,6.35E-10,,
,6.646999,6.27E-10,,
,6.648999,6.19E-10,,
,6.650999,6.10E-10,,
,6.652999,6.01E-10,,
,6.654999,5.93E-10,,
,6.656999,5.85E-10,,
,6.658999,5.78E-10,,
,6.660999,5.71E-10,,
,6.662999,5.63E-10,,
,6.664999,5.55E-10,,
,6.666999,5.47E-10,,
,6.668999,5.38E-10,,
,6.670999,5.28E-10,,
,6.672999,5.20E-10,,
,6.674999,5.12E-10,,
,6.676999,5.04E-10,,
,6.678999,4.97E-10,,
,6.680999,4.88E-10,,
,6.682999,4.79E-10,,
,6.684999,4.69E-10,,
,6.686999,4.59E-10,,
,6.688999,4.49E-10,,
,6.690999,4.40E-10,,
,6.692999,4.32E-10,,
,6.694999,4.23E-10,,
,6.696999,4.14E-10,,
,6.698999,4.04E-10,,
,6.700999,3.93E-10,,
,6.702999,3.82E-10,,
,6.704999,3.71E-10,,
,6.706999,3.60E-10,,
,6.708999,3.50E-10,,
,6.710999,3.41E-10,,
,6.712999,3.31E-10,,
,6.714999,3.20E-10,,
,6.716999,3.09E-10,,
,6.718999,2.96E-10,,
,6.720999,2.85E-10,,
,6.722999,2.73E-10,,
,6.724999,2.63E-10,,
,6.726999,2.52E-10,,
,6.728999,2.42E-10,,
,6.730999,2.31E-10,,
,6.732999,2.19E-10,,
,6.734999,2.06E-10,,
,6.736999,1.94E-10,,
,6.738999,1.82E-10,,
,6.740999,1.70E-10,,
,6.742999,1.60E-10,,
,6.744999,1.49E-10,,
,6.746999,1.38E-10,,
,6.748999,1.25E-10,,
,6.750999,1.13E-10,,
,6.752999,9.98E-11,,
,6.754999,8.75E-11,,
,6.756999,7.58E-11,,
,6.758999,6.48E-11,,
,6.760999,5.39E-11,,
,6.762999,4.28E-11,,
,6.764999,3.11E-11,,
,6.766999,1.87E-11,,
,6.768999,5.56E-12,,
,6.770999,-7.43E-12,,
,6.772999,-1.96E-11,,
,6.774999,-3.08E-11,,
,6.776999,-4.20E-11,,
,6.778999,-5.32E-11,,
,6.780999,-6.50E-11,,
,6.782999,-7.73E-11,,
,6.784999,-9.03E-11,,
,6.786999,-1.03E-10,,
,6.788999,-1.16E-10,,
,6.790999,-1.28E-10,,
,6.792999,-1.40E-10,,
,6.794999,-1.51E-10,,
,6.796999,-1.63E-10,,
,6.798999,-1.75E-10,,
,6.800999,-1.89E-10,,
,6.802999,-2.02E-10,,
,6.804999,-2.16E-10,,
,6.806999,-2.28E-10,,
,6.808999,-2.40E-10,,
,6.810999,-2.52E-10,,
,6.812999,-2.64E-10,,
,6.814999,-2.77E-10,,
,6.816999,-2.90E-10,,
,6.818999,-3.04E-10,,
,6.820999,-3.17E-10,,
,6.822999,-3.30E-10,,
,6.824999,-3.42E-10,,
,6.826999,-3.54E-10,,
,6.828999,-3.66E-10,,
,6.830999,-3.78E-10,,
,6.832999,-3.90E-10,,
,6.834999,-4.04E-10,,
,6.836999,-4.17E-10,,
,6.838999,-4.29E-10,,
,6.840999,-4.41E-10,,
,6.842999,-4.52E-10,,
,6.844999,-4.63E-10,,
,6.846999,-4.74E-10,,
,6.848999,-4.85E-10,,
,6.850999,-4.97E-10,,
,6.852999,-5.10E-10,,
,6.854999,-5.21E-10,,
,6.856999,-5.32E-10,,
,6.858999,-5.42E-10,,
,6.860999,-5.52E-10,,
,6.862999,-5.61E-10,,
,6.864999,-5.71E-10,,
,6.866999,-5.81E-10,,
,6.868999,-5.92E-10,,
,6.870999,-6.02E-10,,
,6.872999,-6.12E-10,,
,6.874999,-6.20E-10,,
,6.876999,-6.29E-10,,
,6.878999,-6.37E-10,,
,6.880999,-6.45E-10,,
,6.882999,-6.55E-10,,
,6.884999,-6.64E-10,,
,6.886999,-6.73E-10,,
,6.888999,-6.82E-10,,
,6.890999,-6.90E-10,,
,6.892999,-6.98E-10,,
,6.894999,-7.05E-10,,
,6.896999,-7.12E-10,,
,6.898999,-7.20E-10,,
,6.900999,-7.29E-10,,
,6.902999,-7.37E-10,,
,6.904999,-7.45E-10,,
,6.906999,-7.52E-10,,
,6.908999,-7.59E-10,,
,6.910999,-7.65E-10,,
,6.912999,-7.72E-10,,
,6.914999,-7.79E-10,,
,6.916999,-7.86E-10,,
,6.918999,-7.94E-10,,
,6.920999,-8.02E-10,,
,6.922999,-8.09E-10,,
,6.924999,-8.14E-10,,
,6.926999,-8.20E-10,,
,6.928999,-8.25E-10,,
,6.930999,-8.31E-10,,
,6.932999,-8.37E-10,,
,6.934999,-8.44E-10,,
,6.936999,-8.51E-10,,
,6.938999,-8.57E-10,,
,6.940999,-8.62E-10,,
,6.942999,-8.67E-10,,
,6.944999,-8.72E-10,,
,6.946999,-8.76E-10,,
,6.948999,-8.81E-10,,
,6.950999,-8.87E-10,,
,6.952999,-8.93E-10,,
,6.954999,-8.99E-10,,
,6.956999,-9.03E-10,,
,6.958999,-9.07E-10,,
,6.960999,-9.11E-10,,
,6.962999,-9.15E-10,,
,6.964999,-9.19E-10,,
,6.966999,-9.24E-10,,
,6.968999,-9.29E-10,,
,6.970999,-9.34E-10,,
,6.972999,-9.38E-10,,
,6.974999,-9.41E-10,,
,6.976999,-9.44E-10,,
,6.978999,-9.47E-10,,
,6.980999,-9.51E-10,,
,6.982999,-9.55E-10,,
,6.984999,-9.59E-10,,
,6.986999,-9.64E-10,,
,6.988999,-9.67E-10,,
,6.990999,-9.71E-10,,
,6.992999,-9.73E-10,,
,6.994999,-9.76E-10,,
,6.996999,-9.79E-10,,
,6.998999,-9.82E-10,,
,7.000999,-9.86E-10,,
,7.002999,-9.91E-10,,
,7.004999,-9.94E-10,,
,7.006999,-9.98E-10,,
,7.008999,-1.00E-09,,
,7.010999,-1.00E-09,,
,7.012999,-1.01E-09,,
,7.014999,-1.01E-09,,
,7.016999,-1.01E-09,,
,7.018999,-1.02E-09,,
,7.020999,-1.02E-09,,
,7.022999,-1.03E-09,,
,7.024999,-1.03E-09,,
,7.026999,-1.03E-09,,
,7.028999,-1.04E-09,,
,7.030999,-1.04E-09,,
,7.032999,-1.04E-09,,
,7.034999,-1.05E-09,,
,7.036999,-1.05E-09,,
,7.038999,-1.06E-09,,
,7.040999,-1.06E-09,,
,7.042999,-1.07E-09,,
,7.044999,-1.07E-09,,
,7.046999,-1.08E-09,,
,7.048999,-1.08E-09,,
,7.050999,-1.09E-09,,
,7.052999,-1.09E-09,,
,7.054999,-1.10E-09,,
,7.056999,-1.10E-09,,
,7.058999,-1.11E-09,,
,7.060999,-1.11E-09,,
,7.062999,-1.11E-09,,
,7.064999,-1.12E-09,,
,7.066999,-1.12E-09,,
,7.068999,-1.13E-09,,
,7.070999,-1.14E-09,,
,7.072999,-1.14E-09,,
,7.074999,-1.14E-09,,
,7.076999,-1.15E-09,,
,7.078999,-1.15E-09,,
,7.080999,-1.16E-09,,
,7.082999,-1.16E-09,,
,7.084999,-1.17E-09,,
,7.086999,-1.17E-09,,
,7.088999,-1.18E-09,,
,7.090999,-1.18E-09,,
,7.092999,-1.19E-09,,
,7.094999,-1.19E-09,,
,7.096999,-1.19E-09,,
,7.098999,-1.20E-09,,
,7.100999,-1.20E-09,,
,7.102999,-1.21E-09,,
,7.104999,-1.21E-09,,
,7.106999,-1.22E-09,,
,7.108999,-1.22E-09,,
,7.110999,-1.22E-09,,
,7.112999,-1.23E-09,,
,7.114999,-1.23E-09,,
,7.116999,-1.23E-09,,
,7.118999,-1.24E-09,,
,7.120999,-1.24E-09,,
,7.122999,-1.25E-09,,
,7.124999,-1.25E-09,,
,7.126999,-1.25E-09,,
,7.128999,-1.25E-09,,
,7.130999,-1.26E-09,,
,7.132999,-1.26E-09,,
,7.134999,-1.26E-09,,
,7.136999,-1.27E-09,,
,7.138999,-1.27E-09,,
,7.140999,-1.28E-09,,
,7.142999,-1.28E-09,,
,7.144999,-1.28E-09,,
,7.146999,-1.28E-09,,
,7.148999,-1.28E-09,,
,7.150999,-1.29E-09,,
,7.152999,-1.29E-09,,
,7.154999,-1.29E-09,,
,7.156999,-1.30E-09,,
,7.158999,-1.30E-09,,
,7.160999,-1.30E-09,,
,7.162999,-1.30E-09,,
,7.164999,-1.30E-09,,
,7.166999,-1.30E-09,,
,7.168999,-1.31E-09,,
,7.170999,-1.31E-09,,
,7.172999,-1.31E-09,,
,7.174999,-1.31E-09,,
,7.176999,-1.31E-09,,
,7.178999,-1.31E-09,,
,7.180999,-1.31E-09,,
,7.182999,-1.32E-09,,
,7.184999,-1.32E-09,,
,7.186999,-1.32E-09,,
,7.188999,-1.32E-09,,
,7.190999,-1.32E-09,,
,7.192999,-1.32E-09,,
,7.194999,-1.32E-09,,
,7.196999,-1.32E-09,,
,7.198999,-1.32E-09,,
,7.200999,-1.32E-09,,
,7.202999,-1.32E-09,,
,7.204999,-1.32E-09,,
,7.206999,-1.32E-09,,
,7.208999,-1.32E-09,,
,7.210999,-1.32E-09,,
,7.212999,-1.31E-09,,
,7.214999,-1.31E-09,,
,7.216999,-1.31E-09,,
,7.218999,-1.31E-09,,
,7.220999,-1.31E-09,,
,7.222999,-1.31E-09,,
,7.224999,-1.31E-09,,
,7.226999,-1.30E-09,,
,7.228999,-1.30E-09,,
,7.230999,-1.30E-09,,
,7.232999,-1.29E-09,,
,7.234999,-1.29E-09,,
,7.236999,-1.29E-09,,
,7.238999,-1.29E-09,,
,7.240999,-1.28E-09,,
,7.242999,-1.28E-09,,
,7.244999,-1.27E-09,,
,7.246999,-1.27E-09,,
,7.248999,-1.27E-09,,
,7.250999,-1.26E-09,,
,7.252999,-1.26E-09,,
,7.254999,-1.26E-09,,
,7.256999,-1.25E-09,,
,7.258999,-1.25E-09,,
,7.260999,-1.25E-09,,
,7.262999,-1.24E-09,,
,7.264999,-1.24E-09,,
,7.266999,-1.23E-09,,
,7.268999,-1.23E-09,,
,7.270999,-1.23E-09,,
,7.272999,-1.22E-09,,
,7.274999,-1.22E-09,,
,7.276999,-1.21E-09,,
,7.278999,-1.21E-09,,
,7.280999,-1.21E-09,,
,7.282999,-1.20E-09,,
,7.284999,-1.20E-09,,
,7.286999,-1.19E-09,,
,7.288999,-1.19E-09,,
,7.290999,-1.19E-09,,
,7.292999,-1.18E-09,,
,7.294999,-1.17E-09,,
,7.296999,-1.17E-09,,
,7.298999,-1.16E-09,,
,7.300999,-1.16E-09,,
,7.302999,-1.15E-09,,
,7.304999,-1.15E-09,,
,7.306999,-1.14E-09,,
,7.308999,-1.14E-09,,
,7.310999,-1.13E-09,,
,7.312999,-1.12E-09,,
,7.314999,-1.12E-09,,
,7.316999,-1.11E-09,,
,7.318999,-1.11E-09,,
,7.320999,-1.10E-09,,
,7.322999,-1.09E-09,,
,7.324999,-1.08E-09,,
,7.326999,-1.08E-09,,
,7.328999,-1.07E-09,,
,7.330999,-1.06E-09,,
,7.332999,-1.05E-09,,
,7.334999,-1.05E-09,,
,7.336999,-1.04E-09,,
,7.338999,-1.03E-09,,
,7.340999,-1.02E-09,,
,7.342999,-1.01E-09,,
,7.344999,-1.01E-09,,
,7.346999,-9.97E-10,,
,7.348999,-9.89E-10,,
,7.350999,-9.82E-10,,
,7.352999,-9.75E-10,,
,7.354999,-9.67E-10,,
,7.356999,-9.59E-10,,
,7.358999,-9.51E-10,,
,7.360999,-9.42E-10,,
,7.362999,-9.33E-10,,
,7.364999,-9.25E-10,,
,7.366999,-9.18E-10,,
,7.368999,-9.12E-10,,
,7.370999,-9.05E-10,,
,7.372999,-8.99E-10,,
,7.374999,-8.91E-10,,
,7.376999,-8.84E-10,,
,7.378999,-8.76E-10,,
,7.380999,-8.70E-10,,
,7.382999,-8.64E-10,,
,7.384999,-8.60E-10,,
,7.386999,-8.55E-10,,
,7.388999,-8.50E-10,,
,7.390999,-8.45E-10,,
,7.392999,-8.40E-10,,
,7.394999,-8.34E-10,,
,7.396999,-8.30E-10,,
,7.398999,-8.26E-10,,
,7.400999,-8.23E-10,,
,7.402999,-8.21E-10,,
,7.404999,-8.18E-10,,
,7.406999,-8.15E-10,,
,7.408999,-8.12E-10,,
,7.410999,-8.08E-10,,
,7.412999,-8.05E-10,,
,7.414999,-8.03E-10,,
,7.416999,-8.02E-10,,
,7.418999,-8.01E-10,,
,7.420999,-8.00E-10,,
,7.422999,-7.98E-10,,
,7.424999,-7.97E-10,,
,7.426999,-7.95E-10,,
,7.428999,-7.93E-10,,
,7.430999,-7.92E-10,,
,7.432999,-7.92E-10,,
,7.434999,-7.92E-10,,
,7.436999,-7.92E-10,,
,7.438999,-7.92E-10,,
,7.440999,-7.92E-10,,
,7.442999,-7.91E-10,,
,7.444999,-7.90E-10,,
,7.446999,-7.90E-10,,
,7.448999,-7.90E-10,,
,7.450999,-7.91E-10,,
,7.452999,-7.92E-10,,
,7.454999,-7.93E-10,,
,7.456999,-7.93E-10,,
,7.458999,-7.93E-10,,
,7.460999,-7.93E-10,,
,7.462999,-7.92E-10,,
,7.464999,-7.93E-10,,
,7.466999,-7.94E-10,,
,7.468999,-7.96E-10,,
,7.470999,-7.98E-10,,
,7.472999,-7.99E-10,,
,7.474999,-7.99E-10,,
,7.476999,-7.99E-10,,
,7.478999,-7.99E-10,,
,7.480999,-7.99E-10,,
,7.482999,-8.00E-10,,
,7.484999,-8.01E-10,,
,7.486999,-8.03E-10,,
,7.488999,-8.04E-10,,
,7.490999,-8.04E-10,,
,7.492999,-8.04E-10,,
,7.494999,-8.03E-10,,
,7.496999,-8.03E-10,,
,7.498999,-8.03E-10,,
,7.500999,-8.05E-10,,
,7.502999,-8.06E-10,,
,7.504999,-8.06E-10,,
,7.506999,-8.06E-10,,
,7.508999,-8.06E-10,,
,7.510999,-8.04E-10,,
,7.512999,-8.03E-10,,
,7.514999,-8.02E-10,,
,7.516999,-8.02E-10,,
,7.518999,-8.02E-10,,
,7.520999,-8.02E-10,,
,7.522999,-8.01E-10,,
,7.524999,-8.00E-10,,
,7.526999,-7.98E-10,,
,7.528999,-7.96E-10,,
,7.530999,-7.94E-10,,
,7.532999,-7.92E-10,,
,7.534999,-7.92E-10,,
,7.536999,-7.91E-10,,
,7.538999,-7.89E-10,,
,7.540999,-7.86E-10,,
,7.542999,-7.83E-10,,
,7.544999,-7.80E-10,,
,7.546999,-7.77E-10,,
,7.548999,-7.74E-10,,
,7.550999,-7.72E-10,,
,7.552999,-7.70E-10,,
,7.554999,-7.67E-10,,
,7.556999,-7.64E-10,,
,7.558999,-7.60E-10,,
,7.560999,-7.56E-10,,
,7.562999,-7.52E-10,,
,7.564999,-7.49E-10,,
,7.566999,-7.46E-10,,
,7.568999,-7.43E-10,,
,7.570999,-7.41E-10,,
,7.572999,-7.38E-10,,
,7.574999,-7.34E-10,,
,7.576999,-7.30E-10,,
,7.578999,-7.26E-10,,
,7.580999,-7.22E-10,,
,7.582999,-7.20E-10,,
,7.584999,-7.17E-10,,
,7.586999,-7.15E-10,,
,7.588999,-7.13E-10,,
,7.590999,-7.10E-10,,
,7.592999,-7.07E-10,,
,7.594999,-7.03E-10,,
,7.596999,-7.00E-10,,
,7.598999,-6.97E-10,,
,7.600999,-6.96E-10,,
,7.602999,-6.94E-10,,
,7.604999,-6.93E-10,,
,7.606999,-6.90E-10,,
,7.608999,-6.88E-10,,
,7.610999,-6.85E-10,,
,7.612999,-6.82E-10,,
,7.614999,-6.80E-10,,
,7.616999,-6.78E-10,,
,7.618999,-6.77E-10,,
,7.620999,-6.76E-10,,
,7.622999,-6.74E-10,,
,7.624999,-6.72E-10,,
,7.626999,-6.69E-10,,
,7.628999,-6.67E-10,,
,7.630999,-6.65E-10,,
,7.632999,-6.64E-10,,
,7.634999,-6.63E-10,,
,7.636999,-6.62E-10,,
,7.638999,-6.61E-10,,
,7.640999,-6.59E-10,,
,7.642999,-6.57E-10,,
,7.644999,-6.55E-10,,
,7.646999,-6.53E-10,,
,7.648999,-6.51E-10,,
,7.650999,-6.51E-10,,
,7.652999,-6.50E-10,,
,7.654999,-6.50E-10,,
,7.656999,-6.48E-10,,
,7.658999,-6.47E-10,,
,7.660999,-6.45E-10,,
,7.662999,-6.43E-10,,
,7.664999,-6.42E-10,,
,7.666999,-6.42E-10,,
,7.668999,-6.43E-10,,
,7.670999,-6.43E-10,,
,7.672999,-6.42E-10,,
,7.674999,-6.41E-10,,
,7.676999,-6.40E-10,,
,7.678999,-6.39E-10,,
,7.680999,-6.38E-10,,
,7.682999,-6.38E-10,,
,7.684999,-6.38E-10,,
,7.686999,-6.39E-10,,
,7.688999,-6.39E-10,,
,7.690999,-6.39E-10,,
,7.692999,-6.38E-10,,
,7.694999,-6.37E-10,,
,7.696999,-6.36E-10,,
,7.698999,-6.36E-10,,
,7.700999,-6.37E-10,,
,7.702999,-6.38E-10,,
,7.704999,-6.38E-10,,
,7.706999,-6.38E-10,,
,7.708999,-6.37E-10,,
,7.710999,-6.36E-10,,
,7.712999,-6.35E-10,,
,7.714999,-6.35E-10,,
,7.716999,-6.35E-10,,
,7.718999,-6.36E-10,,
,7.720999,-6.37E-10,,
,7.722999,-6.36E-10,,
,7.724999,-6.35E-10,,
,7.726999,-6.34E-10,,
,7.728999,-6.33E-10,,
,7.730999,-6.32E-10,,
,7.732999,-6.31E-10,,
,7.734999,-6.32E-10,,
,7.736999,-6.32E-10,,
,7.738999,-6.32E-10,,
,7.740999,-6.30E-10,,
,7.742999,-6.28E-10,,
,7.744999,-6.26E-10,,
,7.746999,-6.25E-10,,
,7.748999,-6.23E-10,,
,7.750999,-6.23E-10,,
,7.752999,-6.22E-10,,
,7.754999,-6.21E-10,,
,7.756999,-6.19E-10,,
,7.758999,-6.17E-10,,
,7.760999,-6.14E-10,,
,7.762999,-6.11E-10,,
,7.764999,-6.08E-10,,
,7.766999,-6.06E-10,,
,7.768999,-6.05E-10,,
,7.770999,-6.03E-10,,
,7.772999,-6.00E-10,,
,7.774999,-5.96E-10,,
,7.776999,-5.92E-10,,
,7.778999,-5.88E-10,,
,7.780999,-5.84E-10,,
,7.782999,-5.80E-10,,
,7.784999,-5.77E-10,,
,7.786999,-5.74E-10,,
,7.788999,-5.71E-10,,
,7.790999,-5.66E-10,,
,7.792999,-5.61E-10,,
,7.794999,-5.56E-10,,
,7.796999,-5.51E-10,,
,7.798999,-5.46E-10,,
,7.800999,-5.42E-10,,
,7.802999,-5.37E-10,,
,7.804999,-5.32E-10,,
,7.806999,-5.27E-10,,
,7.808999,-5.20E-10,,
,7.810999,-5.14E-10,,
,7.812999,-5.07E-10,,
,7.814999,-5.01E-10,,
,7.816999,-4.95E-10,,
,7.818999,-4.90E-10,,
,7.820999,-4.84E-10,,
,7.822999,-4.78E-10,,
,7.824999,-4.71E-10,,
,7.826999,-4.63E-10,,
,7.828999,-4.54E-10,,
,7.830999,-4.47E-10,,
,7.832999,-4.39E-10,,
,7.834999,-4.32E-10,,
,7.836999,-4.24E-10,,
,7.838999,-4.16E-10,,
,7.840999,-4.08E-10,,
,7.842999,-3.98E-10,,
,7.844999,-3.88E-10,,
,7.846999,-3.78E-10,,
,7.848999,-3.68E-10,,
,7.850999,-3.59E-10,,
,7.852999,-3.50E-10,,
,7.854999,-3.40E-10,,
,7.856999,-3.30E-10,,
,7.858999,-3.18E-10,,
,7.860999,-3.06E-10,,
,7.862999,-2.93E-10,,
,7.864999,-2.81E-10,,
,7.866999,-2.69E-10,,
,7.868999,-2.57E-10,,
,7.870999,-2.45E-10,,
,7.872999,-2.32E-10,,
,7.874999,-2.18E-10,,
,7.876999,-2.03E-10,,
,7.878999,-1.88E-10,,
,7.880999,-1.73E-10,,
,7.882999,-1.59E-10,,
,7.884999,-1.44E-10,,
,7.886999,-1.30E-10,,
,7.888999,-1.15E-10,,
,7.890999,-9.95E-11,,
,7.892999,-8.32E-11,,
,7.894999,-6.63E-11,,
,7.896999,-4.93E-11,,
,7.898999,-3.28E-11,,
,7.900999,-1.70E-11,,
,7.902999,-1.53E-12,,
,7.904999,1.45E-11,,
,7.906999,3.12E-11,,
,7.908999,4.89E-11,,
,7.910999,6.66E-11,,
,7.912999,8.45E-11,,
,7.914999,1.02E-10,,
,7.916999,1.18E-10,,
,7.918999,1.34E-10,,
,7.920999,1.50E-10,,
,7.922999,1.67E-10,,
,7.924999,1.85E-10,,
,7.926999,2.02E-10,,
,7.928999,2.20E-10,,
,7.930999,2.37E-10,,
,7.932999,2.53E-10,,
,7.934999,2.69E-10,,
,7.936999,2.84E-10,,
,7.938999,3.00E-10,,
,7.940999,3.16E-10,,
,7.942999,3.33E-10,,
,7.944999,3.49E-10,,
,7.946999,3.65E-10,,
,7.948999,3.80E-10,,
,7.950999,3.94E-10,,
,7.952999,4.08E-10,,
,7.954999,4.21E-10,,
,7.956999,4.35E-10,,
,7.958999,4.50E-10,,
,7.960999,4.64E-10,,
,7.962999,4.78E-10,,
,7.964999,4.91E-10,,
,7.966999,5.03E-10,,
,7.968999,5.15E-10,,
,7.970999,5.27E-10,,
,7.972999,5.38E-10,,
,7.974999,5.50E-10,,
,7.976999,5.63E-10,,
,7.978999,5.75E-10,,
,7.980999,5.86E-10,,
,7.982999,5.96E-10,,
,7.984999,6.06E-10,,
,7.986999,6.14E-10,,
,7.988999,6.24E-10,,
,7.990999,6.33E-10,,
,7.992999,6.43E-10,,
,7.994999,6.53E-10,,
,7.996999,6.62E-10,,
,7.998999,6.70E-10,,
,8.000999,6.77E-10,,
,8.002999,6.83E-10,,
,8.004999,6.90E-10,,
,8.006999,6.97E-10,,
,8.008999,7.04E-10,,
,8.010999,7.11E-10,,
,8.012999,7.18E-10,,
,8.014999,7.23E-10,,
,8.016999,7.28E-10,,
,8.018999,7.32E-10,,
,8.020999,7.37E-10,,
,8.022999,7.41E-10,,
,8.024999,7.45E-10,,
,8.026999,7.50E-10,,
,8.028999,7.55E-10,,
,8.030999,7.59E-10,,
,8.032999,7.62E-10,,
,8.034999,7.64E-10,,
,8.036999,7.67E-10,,
,8.038999,7.69E-10,,
,8.040999,7.72E-10,,
,8.042999,7.76E-10,,
,8.044999,7.79E-10,,
,8.046999,7.82E-10,,
,8.048999,7.85E-10,,
,8.050999,7.87E-10,,
,8.052999,7.88E-10,,
,8.054999,7.90E-10,,
,8.056999,7.92E-10,,
,8.058999,7.95E-10,,
,8.060999,7.99E-10,,
,8.062999,8.02E-10,,
,8.064999,8.05E-10,,
,8.066999,8.08E-10,,
,8.068999,8.10E-10,,
,8.070999,8.13E-10,,
,8.072999,8.16E-10,,
,8.074999,8.20E-10,,
,8.076999,8.25E-10,,
,8.078999,8.30E-10,,
,8.080999,8.35E-10,,
,8.082999,8.39E-10,,
,8.084999,8.42E-10,,
,8.086999,8.46E-10,,
,8.088999,8.51E-10,,
,8.090999,8.58E-10,,
,8.092999,8.64E-10,,
,8.094999,8.72E-10,,
,8.096999,8.79E-10,,
,8.098999,8.86E-10,,
,8.100999,8.93E-10,,
,8.102999,8.99E-10,,
,8.104999,9.07E-10,,
,8.106999,9.15E-10,,
,8.108999,9.25E-10,,
,8.110999,9.35E-10,,
,8.112999,9.45E-10,,
,8.114999,9.55E-10,,
,8.116999,9.65E-10,,
,8.118999,9.75E-10,,
,8.120999,9.86E-10,,
,8.122999,9.97E-10,,
,8.124999,1.01E-09,,
,8.126999,1.02E-09,,
,8.128999,1.04E-09,,
,8.130999,1.05E-09,,
,8.132999,1.06E-09,,
,8.134999,1.08E-09,,
,8.136999,1.09E-09,,
,8.138999,1.10E-09,,
,8.140999,1.12E-09,,
,8.142999,1.14E-09,,
,8.144999,1.15E-09,,
,8.146999,1.17E-09,,
,8.148999,1.19E-09,,
,8.150999,1.20E-09,,
,8.152999,1.22E-09,,
,8.154999,1.23E-09,,
,8.156999,1.25E-09,,
,8.158999,1.27E-09,,
,8.160999,1.29E-09,,
,8.162999,1.31E-09,,
,8.164999,1.33E-09,,
,8.166999,1.35E-09,,
,8.168999,1.36E-09,,
,8.170999,1.38E-09,,
,8.172999,1.40E-09,,
,8.174999,1.42E-09,,
,8.176999,1.44E-09,,
,8.178999,1.46E-09,,
,8.180999,1.48E-09,,
,8.182999,1.50E-09,,
,8.184999,1.52E-09,,
,8.186999,1.54E-09,,
,8.188999,1.56E-09,,
,8.190999,1.58E-09,,
,8.192999,1.60E-09,,
,8.194999,1.62E-09,,
,8.196999,1.64E-09,,
,8.198999,1.66E-09,,
,8.200999,1.68E-09,,
,8.202999,1.70E-09,,
,8.204999,1.72E-09,,
,8.206999,1.74E-09,,
,8.208999,1.76E-09,,
,8.210999,1.79E-09,,
,8.212999,1.81E-09,,
,8.214999,1.83E-09,,
,8.216999,1.85E-09,,
,8.218999,1.87E-09,,
,8.220999,1.89E-09,,
,8.222999,1.91E-09,,
,8.224999,1.93E-09,,
,8.226999,1.95E-09,,
,8.228999,1.97E-09,,
,8.230999,1.99E-09,,
,8.232999,2.01E-09,,
,8.234999,2.03E-09,,
,8.236999,2.05E-09,,
,8.238999,2.07E-09,,
,8.240999,2.09E-09,,
,8.242999,2.12E-09,,
,8.244999,2.14E-09,,
,8.246999,2.16E-09,,
,8.248999,2.19E-09,,
,8.250999,2.21E-09,,
,8.252999,2.23E-09,,
,8.254999,2.25E-09,,
,8.256999,2.28E-09,,
,8.258999,2.30E-09,,
,8.260999,2.32E-09,,
,8.262999,2.35E-09,,
,8.264999,2.37E-09,,
,8.266999,2.39E-09,,
,8.268999,2.42E-09,,
,8.270999,2.44E-09,,
,8.272999,2.46E-09,,
,8.274999,2.48E-09,,
,8.276999,2.51E-09,,
,8.278999,2.53E-09,,
,8.280999,2.55E-09,,
,8.282999,2.57E-09,,
,8.284999,2.59E-09,,
,8.286999,2.61E-09,,
,8.288999,2.63E-09,,
,8.290999,2.65E-09,,
,8.292999,2.67E-09,,
,8.294999,2.69E-09,,
,8.296999,2.71E-09,,
,8.298999,2.72E-09,,
,8.300999,2.74E-09,,
,8.302999,2.76E-09,,
,8.304999,2.77E-09,,
,8.306999,2.79E-09,,
,8.308999,2.80E-09,,
,8.310999,2.82E-09,,
,8.312999,2.83E-09,,
,8.314999,2.84E-09,,
,8.316999,2.85E-09,,
,8.318999,2.86E-09,,
,8.320999,2.87E-09,,
,8.322999,2.88E-09,,
,8.324999,2.89E-09,,
,8.326999,2.90E-09,,
,8.328999,2.91E-09,,
,8.330999,2.92E-09,,
,8.332999,2.93E-09,,
,8.334999,2.93E-09,,
,8.336999,2.93E-09,,
,8.338999,2.94E-09,,
,8.340999,2.94E-09,,
,8.342999,2.94E-09,,
,8.344999,2.95E-09,,
,8.346999,2.95E-09,,
,8.348999,2.95E-09,,
,8.350999,2.95E-09,,
,8.352999,2.95E-09,,
,8.354999,2.94E-09,,
,8.356999,2.94E-09,,
,8.358999,2.94E-09,,
,8.360999,2.94E-09,,
,8.362999,2.94E-09,,
,8.364999,2.93E-09,,
,8.366999,2.93E-09,,
,8.368999,2.92E-09,,
,8.370999,2.91E-09,,
,8.372999,2.91E-09,,
,8.374999,2.90E-09,,
,8.376999,2.90E-09,,
,8.378999,2.89E-09,,
,8.380999,2.88E-09,,
,8.382999,2.87E-09,,
,8.384999,2.87E-09,,
,8.386999,2.86E-09,,
,8.388999,2.85E-09,,
,8.390999,2.84E-09,,
,8.392999,2.83E-09,,
,8.394999,2.82E-09,,
,8.396999,2.82E-09,,
,8.398999,2.81E-09,,
,8.400999,2.80E-09,,
,8.402999,2.79E-09,,
,8.404999,2.78E-09,,
,8.406999,2.77E-09,,
,8.408999,2.76E-09,,
,8.410999,2.75E-09,,
,8.412999,2.74E-09,,
,8.414999,2.73E-09,,
,8.416999,2.72E-09,,
,8.418999,2.71E-09,,
,8.420999,2.70E-09,,
,8.422999,2.69E-09,,
,8.424999,2.68E-09,,
,8.426999,2.67E-09,,
,8.428999,2.66E-09,,
,8.430999,2.65E-09,,
,8.432999,2.64E-09,,
,8.434999,2.63E-09,,
,8.436999,2.62E-09,,
,8.438999,2.61E-09,,
,8.440999,2.60E-09,,
,8.442999,2.59E-09,,
,8.444999,2.58E-09,,
,8.446999,2.58E-09,,
,8.448999,2.57E-09,,
,8.450999,2.56E-09,,
,8.452999,2.55E-09,,
,8.454999,2.54E-09,,
,8.456999,2.53E-09,,
,8.458999,2.52E-09,,
,8.460999,2.51E-09,,
,8.462999,2.50E-09,,
,8.464999,2.49E-09,,
,8.466999,2.49E-09,,
,8.468999,2.48E-09,,
,8.470999,2.47E-09,,
,8.472999,2.46E-09,,
,8.474999,2.45E-09,,
,8.476999,2.44E-09,,
,8.478999,2.43E-09,,
,8.480999,2.43E-09,,
,8.482999,2.42E-09,,
,8.484999,2.41E-09,,
,8.486999,2.40E-09,,
,8.488999,2.39E-09,,
,8.490999,2.38E-09,,
,8.492999,2.37E-09,,
,8.494999,2.37E-09,,
,8.496999,2.36E-09,,
,8.498999,2.35E-09,,
,8.500999,2.34E-09,,
,8.502999,2.33E-09,,
,8.504999,2.33E-09,,
,8.506999,2.32E-09,,
,8.508999,2.31E-09,,
,8.510999,2.31E-09,,
,8.512999,2.30E-09,,
,8.514999,2.29E-09,,
,8.516999,2.29E-09,,
,8.518999,2.28E-09,,
,8.520999,2.28E-09,,
,8.522999,2.27E-09,,
,8.524999,2.27E-09,,
,8.526999,2.27E-09,,
,8.528999,2.27E-09,,
,8.530999,2.26E-09,,
,8.532999,2.26E-09,,
,8.534999,2.26E-09,,
,8.536999,2.26E-09,,
,8.538999,2.26E-09,,
,8.540999,2.26E-09,,
,8.542999,2.26E-09,,
,8.544999,2.26E-09,,
,8.546999,2.27E-09,,
,8.548999,2.27E-09,,
,8.550999,2.27E-09,,
,8.552999,2.28E-09,,
,8.554999,2.28E-09,,
,8.556999,2.29E-09,,
,8.558999,2.29E-09,,
,8.560999,2.30E-09,,
,8.562999,2.31E-09,,
,8.564999,2.31E-09,,
,8.566999,2.32E-09,,
,8.568999,2.33E-09,,
,8.570999,2.34E-09,,
,8.572999,2.34E-09,,
,8.574999,2.35E-09,,
,8.576999,2.36E-09,,
,8.578999,2.37E-09,,
,8.580999,2.38E-09,,
,8.582999,2.39E-09,,
,8.584999,2.40E-09,,
,8.586999,2.41E-09,,
,8.588999,2.42E-09,,
,8.590999,2.43E-09,,
,8.592999,2.44E-09,,
,8.594999,2.45E-09,,
,8.596999,2.46E-09,,
,8.598999,2.47E-09,,
,8.600999,2.48E-09,,
,8.602999,2.49E-09,,
,8.604999,2.50E-09,,
,8.606999,2.51E-09,,
,8.608999,2.52E-09,,
,8.610999,2.53E-09,,
,8.612999,2.54E-09,,
,8.614999,2.55E-09,,
,8.616999,2.55E-09,,
,8.618999,2.56E-09,,
,8.620999,2.56E-09,,
,8.622999,2.57E-09,,
,8.624999,2.58E-09,,
,8.626999,2.58E-09,,
,8.628999,2.59E-09,,
,8.630999,2.59E-09,,
,8.632999,2.59E-09,,
,8.634999,2.59E-09,,
,8.636999,2.59E-09,,
,8.638999,2.59E-09,,
,8.640999,2.59E-09,,
,8.642999,2.59E-09,,
,8.644999,2.59E-09,,
,8.646999,2.59E-09,,
,8.648999,2.59E-09,,
,8.650999,2.58E-09,,
,8.652999,2.58E-09,,
,8.654999,2.57E-09,,
,8.656999,2.56E-09,,
,8.658999,2.55E-09,,
,8.660999,2.55E-09,,
,8.662999,2.54E-09,,
,8.664999,2.53E-09,,
,8.666999,2.51E-09,,
,8.668999,2.50E-09,,
,8.670999,2.49E-09,,
,8.672999,2.47E-09,,
,8.674999,2.46E-09,,
,8.676999,2.44E-09,,
,8.678999,2.43E-09,,
,8.680999,2.41E-09,,
,8.682999,2.39E-09,,
,8.684999,2.37E-09,,
,8.686999,2.34E-09,,
,8.688999,2.32E-09,,
,8.690999,2.30E-09,,
,8.692999,2.27E-09,,
,8.694999,2.25E-09,,
,8.696999,2.22E-09,,
,8.698999,2.20E-09,,
,8.700999,2.17E-09,,
,8.702999,2.14E-09,,
,8.704999,2.11E-09,,
,8.706999,2.08E-09,,
,8.708999,2.04E-09,,
,8.710999,2.01E-09,,
,8.712999,1.98E-09,,
,8.714999,1.95E-09,,
,8.716999,1.92E-09,,
,8.718999,1.89E-09,,
,8.720999,1.85E-09,,
,8.722999,1.82E-09,,
,8.724999,1.79E-09,,
,8.726999,1.76E-09,,
,8.728999,1.73E-09,,
,8.730999,1.70E-09,,
,8.732999,1.67E-09,,
,8.734999,1.64E-09,,
,8.736999,1.61E-09,,
,8.738999,1.58E-09,,
,8.740999,1.55E-09,,
,8.742999,1.53E-09,,
,8.744999,1.50E-09,,
,8.746999,1.48E-09,,
,8.748999,1.45E-09,,
,8.750999,1.43E-09,,
,8.752999,1.40E-09,,
,8.754999,1.38E-09,,
,8.756999,1.35E-09,,
,8.758999,1.33E-09,,
,8.760999,1.31E-09,,
,8.762999,1.29E-09,,
,8.764999,1.27E-09,,
,8.766999,1.25E-09,,
,8.768999,1.23E-09,,
,8.770999,1.21E-09,,
,8.772999,1.20E-09,,
,8.774999,1.18E-09,,
,8.776999,1.16E-09,,
,8.778999,1.15E-09,,
,8.780999,1.14E-09,,
,8.782999,1.12E-09,,
,8.784999,1.11E-09,,
,8.786999,1.10E-09,,
,8.788999,1.09E-09,,
,8.790999,1.08E-09,,
,8.792999,1.07E-09,,
,8.794999,1.06E-09,,
,8.796999,1.05E-09,,
,8.798999,1.05E-09,,
,8.800999,1.04E-09,,
,8.802999,1.03E-09,,
,8.804999,1.03E-09,,
,8.806999,1.02E-09,,
,8.808999,1.02E-09,,
,8.810999,1.02E-09,,
,8.812999,1.02E-09,,
,8.814999,1.02E-09,,
,8.816999,1.02E-09,,
,8.818999,1.02E-09,,
,8.820999,1.02E-09,,
,8.822999,1.02E-09,,
,8.824999,1.03E-09,,
,8.826999,1.03E-09,,
,8.828999,1.04E-09,,
,8.830999,1.04E-09,,
,8.832999,1.05E-09,,
,8.834999,1.06E-09,,
,8.836999,1.07E-09,,
,8.838999,1.07E-09,,
,8.840999,1.08E-09,,
,8.842999,1.10E-09,,
,8.844999,1.11E-09,,
,8.846999,1.12E-09,,
,8.848999,1.13E-09,,
,8.850999,1.14E-09,,
,8.852999,1.16E-09,,
,8.854999,1.17E-09,,
,8.856999,1.18E-09,,
,8.858999,1.20E-09,,
,8.860999,1.21E-09,,
,8.862999,1.23E-09,,
,8.864999,1.25E-09,,
,8.866999,1.26E-09,,
,8.868999,1.28E-09,,
,8.870999,1.29E-09,,
,8.872999,1.31E-09,,
,8.874999,1.33E-09,,
,8.876999,1.34E-09,,
,8.878999,1.36E-09,,
,8.880999,1.38E-09,,
,8.882999,1.40E-09,,
,8.884999,1.41E-09,,
,8.886999,1.43E-09,,
,8.888999,1.44E-09,,
,8.890999,1.46E-09,,
,8.892999,1.47E-09,,
,8.894999,1.49E-09,,
,8.896999,1.50E-09,,
,8.898999,1.52E-09,,
,8.900999,1.53E-09,,
,8.902999,1.55E-09,,
,8.904999,1.56E-09,,
,8.906999,1.57E-09,,
,8.908999,1.58E-09,,
,8.910999,1.59E-09,,
,8.912999,1.61E-09,,
,8.914999,1.62E-09,,
,8.916999,1.63E-09,,
,8.918999,1.63E-09,,
,8.920999,1.64E-09,,
,8.922999,1.65E-09,,
,8.924999,1.66E-09,,
,8.926999,1.66E-09,,
,8.928999,1.67E-09,,
,8.930999,1.68E-09,,
,8.932999,1.68E-09,,
,8.934999,1.69E-09,,
,8.936999,1.69E-09,,
,8.938999,1.69E-09,,
,8.940999,1.70E-09,,
,8.942999,1.70E-09,,
,8.944999,1.70E-09,,
,8.946999,1.70E-09,,
,8.948999,1.70E-09,,
,8.950999,1.70E-09,,
,8.952999,1.70E-09,,
,8.954999,1.70E-09,,
,8.956999,1.70E-09,,
,8.958999,1.70E-09,,
,8.960999,1.70E-09,,
,8.962999,1.70E-09,,
,8.964999,1.70E-09,,
,8.966999,1.70E-09,,
,8.968999,1.69E-09,,
,8.970999,1.69E-09,,
,8.972999,1.69E-09,,
,8.974999,1.68E-09,,
,8.976999,1.68E-09,,
,8.978999,1.68E-09,,
,8.980999,1.68E-09,,
,8.982999,1.68E-09,,
,8.984999,1.67E-09,,
,8.986999,1.67E-09,,
,8.988999,1.66E-09,,
,8.990999,1.66E-09,,
,8.992999,1.66E-09,,
,8.994999,1.66E-09,,
,8.996999,1.66E-09,,
,8.998999,1.65E-09,,
,9.000999,1.65E-09,,
,9.002999,1.65E-09,,
,9.004999,1.64E-09,,
,9.006999,1.64E-09,,
,9.008999,1.64E-09,,
,9.010999,1.64E-09,,
,9.012999,1.63E-09,,
,9.014999,1.63E-09,,
,9.016999,1.63E-09,,
,9.018999,1.63E-09,,
,9.020999,1.62E-09,,
,9.022999,1.62E-09,,
,9.024999,1.62E-09,,
,9.026999,1.61E-09,,
,9.028999,1.61E-09,,
,9.030999,1.61E-09,,
,9.032999,1.61E-09,,
,9.034999,1.60E-09,,
,9.036999,1.60E-09,,
,9.038999,1.60E-09,,
,9.040999,1.59E-09,,
,9.042999,1.59E-09,,
,9.044999,1.59E-09,,
,9.046999,1.59E-09,,
,9.048999,1.58E-09,,
,9.050999,1.58E-09,,
,9.052999,1.58E-09,,
,9.054999,1.57E-09,,
,9.056999,1.57E-09,,
,9.058999,1.56E-09,,
,9.060999,1.56E-09,,
,9.062999,1.56E-09,,
,9.064999,1.56E-09,,
,9.066999,1.55E-09,,
,9.068999,1.55E-09,,
,9.070999,1.54E-09,,
,9.072999,1.54E-09,,
,9.074999,1.53E-09,,
,9.076999,1.53E-09,,
,9.078999,1.53E-09,,
,9.080999,1.52E-09,,
,9.082999,1.52E-09,,
,9.084999,1.51E-09,,
,9.086999,1.51E-09,,
,9.088999,1.50E-09,,
,9.090999,1.50E-09,,
,9.092999,1.49E-09,,
,9.094999,1.49E-09,,
,9.096999,1.48E-09,,
,9.098999,1.48E-09,,
,9.100999,1.47E-09,,
,9.102999,1.47E-09,,
,9.104999,1.46E-09,,
,9.106999,1.46E-09,,
,9.108999,1.45E-09,,
,9.110999,1.45E-09,,
,9.112999,1.44E-09,,
,9.114999,1.44E-09,,
,9.116999,1.44E-09,,
,9.118999,1.43E-09,,
,9.120999,1.42E-09,,
,9.122999,1.42E-09,,
,9.124999,1.42E-09,,
,9.126999,1.41E-09,,
,9.128999,1.41E-09,,
,9.130999,1.41E-09,,
,9.132999,1.40E-09,,
,9.134999,1.40E-09,,
,9.136999,1.39E-09,,
,9.138999,1.39E-09,,
,9.140999,1.39E-09,,
,9.142999,1.39E-09,,
,9.144999,1.39E-09,,
,9.146999,1.38E-09,,
,9.148999,1.38E-09,,
,9.150999,1.38E-09,,
,9.152999,1.38E-09,,
,9.154999,1.38E-09,,
,9.156999,1.38E-09,,
,9.158999,1.38E-09,,
,9.160999,1.38E-09,,
,9.162999,1.38E-09,,
,9.164999,1.38E-09,,
,9.166999,1.38E-09,,
,9.168999,1.38E-09,,
,9.170999,1.38E-09,,
,9.172999,1.39E-09,,
,9.174999,1.39E-09,,
,9.176999,1.39E-09,,
,9.178999,1.40E-09,,
,9.180999,1.40E-09,,
,9.182999,1.40E-09,,
,9.184999,1.41E-09,,
,9.186999,1.41E-09,,
,9.188999,1.41E-09,,
,9.190999,1.42E-09,,
,9.192999,1.43E-09,,
,9.194999,1.43E-09,,
,9.196999,1.44E-09,,
,9.198999,1.44E-09,,
,9.200999,1.45E-09,,
,9.202999,1.46E-09,,
,9.204999,1.46E-09,,
,9.206999,1.47E-09,,
,9.208999,1.48E-09,,
,9.210999,1.49E-09,,
,9.212999,1.49E-09,,
,9.214999,1.50E-09,,
,9.216999,1.51E-09,,
,9.218999,1.52E-09,,
,9.220999,1.53E-09,,
,9.222999,1.54E-09,,
,9.224999,1.55E-09,,
,9.226999,1.56E-09,,
,9.228999,1.57E-09,,
,9.230999,1.58E-09,,
,9.232999,1.59E-09,,
,9.234999,1.60E-09,,
,9.236999,1.61E-09,,
,9.238999,1.63E-09,,
,9.240999,1.64E-09,,
,9.242999,1.65E-09,,
,9.244999,1.66E-09,,
,9.246999,1.68E-09,,
,9.248999,1.69E-09,,
,9.250999,1.70E-09,,
,9.252999,1.72E-09,,
,9.254999,1.73E-09,,
,9.256999,1.74E-09,,
,9.258999,1.76E-09,,
,9.260999,1.78E-09,,
,9.262999,1.79E-09,,
,9.264999,1.81E-09,,
,9.266999,1.82E-09,,
,9.268999,1.84E-09,,
,9.270999,1.85E-09,,
,9.272999,1.87E-09,,
,9.274999,1.88E-09,,
,9.276999,1.90E-09,,
,9.278999,1.91E-09,,
,9.280999,1.93E-09,,
,9.282999,1.95E-09,,
,9.284999,1.96E-09,,
,9.286999,1.98E-09,,
,9.288999,1.99E-09,,
,9.290999,2.01E-09,,
,9.292999,2.02E-09,,
,9.294999,2.04E-09,,
,9.296999,2.05E-09,,
,9.298999,2.07E-09,,
,9.300999,2.08E-09,,
,9.302999,2.10E-09,,
,9.304999,2.11E-09,,
,9.306999,2.13E-09,,
,9.308999,2.14E-09,,
,9.310999,2.15E-09,,
,9.312999,2.17E-09,,
,9.314999,2.18E-09,,
,9.316999,2.19E-09,,
,9.318999,2.20E-09,,
,9.320999,2.21E-09,,
,9.322999,2.22E-09,,
,9.324999,2.23E-09,,
,9.326999,2.25E-09,,
,9.328999,2.25E-09,,
,9.330999,2.26E-09,,
,9.332999,2.27E-09,,
,9.334999,2.28E-09,,
,9.336999,2.28E-09,,
,9.338999,2.29E-09,,
,9.340999,2.29E-09,,
,9.342999,2.30E-09,,
,9.344999,2.30E-09,,
,9.346999,2.31E-09,,
,9.348999,2.31E-09,,
,9.350999,2.31E-09,,
,9.352999,2.31E-09,,
,9.354999,2.31E-09,,
,9.356999,2.31E-09,,
,9.358999,2.30E-09,,
,9.360999,2.30E-09,,
,9.362999,2.30E-09,,
,9.364999,2.29E-09,,
,9.366999,2.29E-09,,
,9.368999,2.28E-09,,
,9.370999,2.27E-09,,
,9.372999,2.26E-09,,
,9.374999,2.25E-09,,
,9.376999,2.24E-09,,
,9.378999,2.23E-09,,
,9.380999,2.22E-09,,
,9.382999,2.20E-09,,
,9.384999,2.18E-09,,
,9.386999,2.17E-09,,
,9.388999,2.15E-09,,
,9.390999,2.13E-09,,
,9.392999,2.11E-09,,
,9.394999,2.09E-09,,
,9.396999,2.07E-09,,
,9.398999,2.04E-09,,
,9.400999,2.02E-09,,
,9.402999,1.99E-09,,
,9.404999,1.96E-09,,
,9.406999,1.93E-09,,
,9.408999,1.90E-09,,
,9.410999,1.87E-09,,
,9.412999,1.84E-09,,
,9.414999,1.81E-09,,
,9.416999,1.77E-09,,
,9.418999,1.73E-09,,
,9.420999,1.69E-09,,
,9.422999,1.65E-09,,
,9.424999,1.61E-09,,
,9.426999,1.57E-09,,
,9.428999,1.53E-09,,
,9.430999,1.49E-09,,
,9.432999,1.44E-09,,
,9.434999,1.39E-09,,
,9.436999,1.34E-09,,
,9.438999,1.29E-09,,
,9.440999,1.24E-09,,
,9.442999,1.19E-09,,
,9.444999,1.14E-09,,
,9.446999,1.08E-09,,
,9.448999,1.03E-09,,
,9.450999,9.68E-10,,
,9.452999,9.08E-10,,
,9.454999,8.46E-10,,
,9.456999,7.84E-10,,
,9.458999,7.22E-10,,
,9.460999,6.59E-10,,
,9.462999,5.96E-10,,
,9.464999,5.31E-10,,
,9.466999,4.64E-10,,
,9.468999,3.97E-10,,
,9.470999,3.29E-10,,
,9.472999,2.61E-10,,
,9.474999,1.95E-10,,
,9.476999,1.29E-10,,
,9.478999,6.45E-11,,
,9.480999,-2.53E-14,,
,9.482999,-6.41E-11,,
,9.484999,-1.27E-10,,
,9.486999,-1.89E-10,,
,9.488999,-2.49E-10,,
,9.490999,-3.06E-10,,
,9.492999,-3.61E-10,,
,9.494999,-4.13E-10,,
,9.496999,-4.63E-10,,
,9.498999,-5.11E-10,,
,9.500999,-5.59E-10,,
,9.502999,-6.04E-10,,
,9.504999,-6.46E-10,,
,9.506999,-6.86E-10,,
,9.508999,-7.22E-10,,
,9.510999,-7.56E-10,,
,9.512999,-7.87E-10,,
,9.514999,-8.17E-10,,
,9.516999,-8.45E-10,,
,9.518999,-8.72E-10,,
,9.520999,-8.96E-10,,
,9.522999,-9.17E-10,,
,9.524999,-9.36E-10,,
,9.526999,-9.52E-10,,
,9.528999,-9.66E-10,,
,9.530999,-9.79E-10,,
,9.532999,-9.90E-10,,
,9.534999,-1.00E-09,,
,9.536999,-1.01E-09,,
,9.538999,-1.02E-09,,
,9.540999,-1.02E-09,,
,9.542999,-1.02E-09,,
,9.544999,-1.02E-09,,
,9.546999,-1.02E-09,,
,9.548999,-1.02E-09,,
,9.550999,-1.02E-09,,
,9.552999,-1.01E-09,,
,9.554999,-1.01E-09,,
,9.556999,-1.00E-09,,
,9.558999,-9.93E-10,,
,9.560999,-9.83E-10,,
,9.562999,-9.72E-10,,
,9.564999,-9.60E-10,,
,9.566999,-9.49E-10,,
,9.568999,-9.37E-10,,
,9.570999,-9.25E-10,,
,9.572999,-9.11E-10,,
,9.574999,-8.95E-10,,
,9.576999,-8.79E-10,,
,9.578999,-8.63E-10,,
,9.580999,-8.46E-10,,
,9.582999,-8.29E-10,,
,9.584999,-8.13E-10,,
,9.586999,-7.96E-10,,
,9.588999,-7.79E-10,,
,9.590999,-7.61E-10,,
,9.592999,-7.42E-10,,
,9.594999,-7.23E-10,,
,9.596999,-7.04E-10,,
,9.598999,-6.86E-10,,
,9.600999,-6.68E-10,,
,9.602999,-6.51E-10,,
,9.604999,-6.33E-10,,
,9.606999,-6.15E-10,,
,9.608999,-5.97E-10,,
,9.610999,-5.78E-10,,
,9.612999,-5.60E-10,,
,9.614999,-5.42E-10,,
,9.616999,-5.26E-10,,
,9.618999,-5.11E-10,,
,9.620999,-4.96E-10,,
,9.622999,-4.81E-10,,
,9.624999,-4.65E-10,,
,9.626999,-4.50E-10,,
,9.628999,-4.34E-10,,
,9.630999,-4.19E-10,,
,9.632999,-4.06E-10,,
,9.634999,-3.94E-10,,
,9.636999,-3.82E-10,,
,9.638999,-3.71E-10,,
,9.640999,-3.59E-10,,
,9.642999,-3.48E-10,,
,9.644999,-3.36E-10,,
,9.646999,-3.26E-10,,
,9.648999,-3.16E-10,,
,9.650999,-3.08E-10,,
,9.652999,-3.01E-10,,
,9.654999,-2.94E-10,,
,9.656999,-2.88E-10,,
,9.658999,-2.81E-10,,
,9.660999,-2.74E-10,,
,9.662999,-2.68E-10,,
,9.664999,-2.63E-10,,
,9.666999,-2.59E-10,,
,9.668999,-2.57E-10,,
,9.670999,-2.55E-10,,
,9.672999,-2.53E-10,,
,9.674999,-2.50E-10,,
,9.676999,-2.48E-10,,
,9.678999,-2.47E-10,,
,9.680999,-2.46E-10,,
,9.682999,-2.47E-10,,
,9.684999,-2.49E-10,,
,9.686999,-2.52E-10,,
,9.688999,-2.56E-10,,
,9.690999,-2.58E-10,,
,9.692999,-2.61E-10,,
,9.694999,-2.64E-10,,
,9.696999,-2.68E-10,,
,9.698999,-2.73E-10,,
,9.700999,-2.80E-10,,
,9.702999,-2.87E-10,,
,9.704999,-2.95E-10,,
,9.706999,-3.03E-10,,
,9.708999,-3.11E-10,,
,9.710999,-3.19E-10,,
,9.712999,-3.27E-10,,
,9.714999,-3.36E-10,,
,9.716999,-3.47E-10,,
,9.718999,-3.58E-10,,
,9.720999,-3.70E-10,,
,9.722999,-3.82E-10,,
,9.724999,-3.94E-10,,
,9.726999,-4.06E-10,,
,9.728999,-4.18E-10,,
,9.730999,-4.30E-10,,
,9.732999,-4.44E-10,,
,9.734999,-4.58E-10,,
,9.736999,-4.74E-10,,
,9.738999,-4.88E-10,,
,9.740999,-5.03E-10,,
,9.742999,-5.17E-10,,
,9.744999,-5.31E-10,,
,9.746999,-5.46E-10,,
,9.748999,-5.62E-10,,
,9.750999,-5.79E-10,,
,9.752999,-5.96E-10,,
,9.754999,-6.13E-10,,
,9.756999,-6.30E-10,,
,9.758999,-6.46E-10,,
,9.760999,-6.61E-10,,
,9.762999,-6.77E-10,,
,9.764999,-6.93E-10,,
,9.766999,-7.11E-10,,
,9.768999,-7.28E-10,,
,9.770999,-7.45E-10,,
,9.772999,-7.62E-10,,
,9.774999,-7.78E-10,,
,9.776999,-7.93E-10,,
,9.778999,-8.08E-10,,
,9.780999,-8.23E-10,,
,9.782999,-8.38E-10,,
,9.784999,-8.55E-10,,
,9.786999,-8.71E-10,,
,9.788999,-8.86E-10,,
,9.790999,-9.00E-10,,
,9.792999,-9.13E-10,,
,9.794999,-9.26E-10,,
,9.796999,-9.38E-10,,
,9.798999,-9.51E-10,,
,9.800999,-9.64E-10,,
,9.802999,-9.77E-10,,
,9.804999,-9.89E-10,,
,9.806999,-1.00E-09,,
,9.808999,-1.01E-09,,
,9.810999,-1.02E-09,,
,9.812999,-1.03E-09,,
,9.814999,-1.04E-09,,
,9.816999,-1.05E-09,,
,9.818999,-1.06E-09,,
,9.820999,-1.06E-09,,
,9.822999,-1.07E-09,,
,9.824999,-1.08E-09,,
,9.826999,-1.09E-09,,
,9.828999,-1.09E-09,,
,9.830999,-1.10E-09,,
,9.832999,-1.10E-09,,
,9.834999,-1.11E-09,,
,9.836999,-1.11E-09,,
,9.838999,-1.12E-09,,
,9.840999,-1.12E-09,,
,9.842999,-1.12E-09,,
,9.844999,-1.12E-09,,
,9.846999,-1.13E-09,,
,9.848999,-1.13E-09,,
,9.850999,-1.13E-09,,
,9.852999,-1.13E-09,,
,9.854999,-1.14E-09,,
,9.856999,-1.14E-09,,
,9.858999,-1.14E-09,,
,9.860999,-1.14E-09,,
,9.862999,-1.14E-09,,
,9.864999,-1.14E-09,,
,9.866999,-1.13E-09,,
,9.868999,-1.13E-09,,
,9.870999,-1.13E-09,,
,9.872999,-1.13E-09,,
,9.874999,-1.13E-09,,
,9.876999,-1.13E-09,,
,9.878999,-1.13E-09,,
,9.880999,-1.12E-09,,
,9.882999,-1.12E-09,,
,9.884999,-1.12E-09,,
,9.886999,-1.12E-09,,
,9.888999,-1.11E-09,,
,9.890999,-1.11E-09,,
,9.892999,-1.11E-09,,
,9.894999,-1.10E-09,,
,9.896999,-1.10E-09,,
,9.898999,-1.09E-09,,
,9.900999,-1.09E-09,,
,9.902999,-1.09E-09,,
,9.904999,-1.08E-09,,
,9.906999,-1.08E-09,,
,9.908999,-1.07E-09,,
,9.910999,-1.07E-09,,
,9.912999,-1.06E-09,,
,9.914999,-1.05E-09,,
,9.916999,-1.05E-09,,
,9.918999,-1.04E-09,,
,9.920999,-1.04E-09,,
,9.922999,-1.03E-09,,
,9.924999,-1.03E-09,,
,9.926999,-1.02E-09,,
,9.928999,-1.01E-09,,
,9.930999,-1.00E-09,,
,9.932999,-9.96E-10,,
,9.934999,-9.89E-10,,
,9.936999,-9.83E-10,,
,9.938999,-9.75E-10,,
,9.940999,-9.67E-10,,
,9.942999,-9.59E-10,,
,9.944999,-9.50E-10,,
,9.946999,-9.41E-10,,
,9.948999,-9.32E-10,,
,9.950999,-9.24E-10,,
,9.952999,-9.16E-10,,
,9.954999,-9.08E-10,,
,9.956999,-8.99E-10,,
,9.958999,-8.90E-10,,
,9.960999,-8.80E-10,,
,9.962999,-8.69E-10,,
,9.964999,-8.60E-10,,
,9.966999,-8.50E-10,,
,9.968999,-8.42E-10,,
,9.970999,-8.33E-10,,
,9.972999,-8.24E-10,,
,9.974999,-8.14E-10,,
,9.976999,-8.03E-10,,
,9.978999,-7.93E-10,,
,9.980999,-7.83E-10,,
,9.982999,-7.74E-10,,
,9.984999,-7.65E-10,,
,9.986999,-7.57E-10,,
,9.988999,-7.48E-10,,
,9.990999,-7.39E-10,,
,9.992999,-7.29E-10,,
,9.994999,-7.19E-10,,
,9.996999,-7.09E-10,,
,9.998999,-6.99E-10,,
,10.000999,-6.91E-10,,
,10.002999,-6.83E-10,,
,10.004999,-6.74E-10,,
,10.006999,-6.65E-10,,
,10.008999,-6.56E-10,,
,10.010999,-6.47E-10,,
,10.012999,-6.37E-10,,
,10.014999,-6.28E-10,,
,10.016999,-6.20E-10,,
,10.018999,-6.14E-10,,
,10.020999,-6.07E-10,,
,10.022999,-5.99E-10,,
,10.024999,-5.91E-10,,
,10.026999,-5.83E-10,,
,10.028999,-5.75E-10,,
,10.030999,-5.67E-10,,
,10.032999,-5.60E-10,,
,10.034999,-5.54E-10,,
,10.036999,-5.48E-10,,
,10.038999,-5.43E-10,,
,10.040999,-5.37E-10,,
,10.042999,-5.30E-10,,
,10.044999,-5.24E-10,,
,10.046999,-5.18E-10,,
,10.048999,-5.13E-10,,
,10.050999,-5.09E-10,,
,10.052999,-5.05E-10,,
,10.054999,-5.02E-10,,
,10.056999,-4.98E-10,,
,10.058999,-4.94E-10,,
,10.060999,-4.89E-10,,
,10.062999,-4.85E-10,,
,10.064999,-4.81E-10,,
,10.066999,-4.78E-10,,
,10.068999,-4.76E-10,,
,10.070999,-4.75E-10,,
,10.072999,-4.73E-10,,
,10.074999,-4.71E-10,,
,10.076999,-4.68E-10,,
,10.078999,-4.66E-10,,
,10.080999,-4.65E-10,,
,10.082999,-4.64E-10,,
,10.084999,-4.65E-10,,
,10.086999,-4.65E-10,,
,10.088999,-4.66E-10,,
,10.090999,-4.66E-10,,
,10.092999,-4.65E-10,,
,10.094999,-4.65E-10,,
,10.096999,-4.65E-10,,
,10.098999,-4.65E-10,,
,10.100999,-4.67E-10,,
,10.102999,-4.69E-10,,
,10.104999,-4.71E-10,,
,10.106999,-4.73E-10,,
,10.108999,-4.75E-10,,
,10.110999,-4.76E-10,,
,10.112999,-4.77E-10,,
,10.114999,-4.79E-10,,
,10.116999,-4.82E-10,,
,10.118999,-4.86E-10,,
,10.120999,-4.89E-10,,
,10.122999,-4.93E-10,,
,10.124999,-4.95E-10,,
,10.126999,-4.98E-10,,
,10.128999,-5.00E-10,,
,10.130999,-5.03E-10,,
,10.132999,-5.06E-10,,
,10.134999,-5.11E-10,,
,10.136999,-5.15E-10,,
,10.138999,-5.19E-10,,
,10.140999,-5.23E-10,,
,10.142999,-5.26E-10,,
,10.144999,-5.28E-10,,
,10.146999,-5.31E-10,,
,10.148999,-5.35E-10,,
,10.150999,-5.40E-10,,
,10.152999,-5.45E-10,,
,10.154999,-5.50E-10,,
,10.156999,-5.54E-10,,
,10.158999,-5.58E-10,,
,10.160999,-5.61E-10,,
,10.162999,-5.64E-10,,
,10.164999,-5.68E-10,,
,10.166999,-5.73E-10,,
,10.168999,-5.78E-10,,
,10.170999,-5.84E-10,,
,10.172999,-5.89E-10,,
,10.174999,-5.94E-10,,
,10.176999,-5.98E-10,,
,10.178999,-6.02E-10,,
,10.180999,-6.06E-10,,
,10.182999,-6.11E-10,,
,10.184999,-6.17E-10,,
,10.186999,-6.23E-10,,
,10.188999,-6.28E-10,,
,10.190999,-6.33E-10,,
,10.192999,-6.37E-10,,
,10.194999,-6.41E-10,,
,10.196999,-6.44E-10,,
,10.198999,-6.48E-10,,
,10.200999,-6.53E-10,,
,10.202999,-6.58E-10,,
,10.204999,-6.63E-10,,
,10.206999,-6.67E-10,,
,10.208999,-6.70E-10,,
,10.210999,-6.72E-10,,
,10.212999,-6.74E-10,,
,10.214999,-6.77E-10,,
,10.216999,-6.80E-10,,
,10.218999,-6.83E-10,,
,10.220999,-6.87E-10,,
,10.222999,-6.89E-10,,
,10.224999,-6.91E-10,,
,10.226999,-6.92E-10,,
,10.228999,-6.92E-10,,
,10.230999,-6.93E-10,,
,10.232999,-6.94E-10,,
,10.234999,-6.95E-10,,
,10.236999,-6.96E-10,,
,10.238999,-6.97E-10,,
,10.240999,-6.97E-10,,
,10.242999,-6.95E-10,,
,10.244999,-6.94E-10,,
,10.246999,-6.92E-10,,
,10.248999,-6.91E-10,,
,10.250999,-6.90E-10,,
,10.252999,-6.89E-10,,
,10.254999,-6.89E-10,,
,10.256999,-6.87E-10,,
,10.258999,-6.84E-10,,
,10.260999,-6.81E-10,,
,10.262999,-6.77E-10,,
,10.264999,-6.74E-10,,
,10.266999,-6.71E-10,,
,10.268999,-6.69E-10,,
,10.270999,-6.67E-10,,
,10.272999,-6.64E-10,,
,10.274999,-6.60E-10,,
,10.276999,-6.55E-10,,
,10.278999,-6.50E-10,,
,10.280999,-6.46E-10,,
,10.282999,-6.42E-10,,
,10.284999,-6.39E-10,,
,10.286999,-6.36E-10,,
,10.288999,-6.32E-10,,
,10.290999,-6.28E-10,,
,10.292999,-6.23E-10,,
,10.294999,-6.17E-10,,
,10.296999,-6.12E-10,,
,10.298999,-6.06E-10,,
,10.300999,-6.02E-10,,
,10.302999,-5.98E-10,,
,10.304999,-5.94E-10,,
,10.306999,-5.89E-10,,
,10.308999,-5.83E-10,,
,10.310999,-5.77E-10,,
,10.312999,-5.71E-10,,
,10.314999,-5.66E-10,,
,10.316999,-5.62E-10,,
,10.318999,-5.58E-10,,
,10.320999,-5.54E-10,,
,10.322999,-5.50E-10,,
,10.324999,-5.45E-10,,
,10.326999,-5.40E-10,,
,10.328999,-5.35E-10,,
,10.330999,-5.29E-10,,
,10.332999,-5.25E-10,,
,10.334999,-5.21E-10,,
,10.336999,-5.17E-10,,
,10.338999,-5.14E-10,,
,10.340999,-5.09E-10,,
,10.342999,-5.05E-10,,
,10.344999,-5.00E-10,,
,10.346999,-4.95E-10,,
,10.348999,-4.90E-10,,
,10.350999,-4.87E-10,,
,10.352999,-4.84E-10,,
,10.354999,-4.81E-10,,
,10.356999,-4.78E-10,,
,10.358999,-4.74E-10,,
,10.360999,-4.69E-10,,
,10.362999,-4.64E-10,,
,10.364999,-4.60E-10,,
,10.366999,-4.57E-10,,
,10.368999,-4.54E-10,,
,10.370999,-4.52E-10,,
,10.372999,-4.49E-10,,
,10.374999,-4.45E-10,,
,10.376999,-4.41E-10,,
,10.378999,-4.37E-10,,
,10.380999,-4.33E-10,,
,10.382999,-4.30E-10,,
,10.384999,-4.28E-10,,
,10.386999,-4.27E-10,,
,10.388999,-4.25E-10,,
,10.390999,-4.23E-10,,
,10.392999,-4.20E-10,,
,10.394999,-4.17E-10,,
,10.396999,-4.14E-10,,
,10.398999,-4.11E-10,,
,10.400999,-4.10E-10,,
,10.402999,-4.09E-10,,
,10.404999,-4.09E-10,,
,10.406999,-4.07E-10,,
,10.408999,-4.05E-10,,
,10.410999,-4.03E-10,,
,10.412999,-4.00E-10,,
,10.414999,-3.99E-10,,
,10.416999,-3.98E-10,,
,10.418999,-3.99E-10,,
,10.420999,-3.99E-10,,
,10.422999,-3.98E-10,,
,10.424999,-3.97E-10,,
,10.426999,-3.96E-10,,
,10.428999,-3.94E-10,,
,10.430999,-3.93E-10,,
,10.432999,-3.92E-10,,
,10.434999,-3.93E-10,,
,10.436999,-3.93E-10,,
,10.438999,-3.93E-10,,
,10.440999,-3.93E-10,,
,10.442999,-3.91E-10,,
,10.444999,-3.90E-10,,
,10.446999,-3.89E-10,,
,10.448999,-3.88E-10,,
,10.450999,-3.88E-10,,
,10.452999,-3.89E-10,,
,10.454999,-3.90E-10,,
,10.456999,-3.90E-10,,
,10.458999,-3.89E-10,,
,10.460999,-3.88E-10,,
,10.462999,-3.86E-10,,
,10.464999,-3.85E-10,,
,10.466999,-3.85E-10,,
,10.468999,-3.85E-10,,
,10.470999,-3.86E-10,,
,10.472999,-3.85E-10,,
,10.474999,-3.84E-10,,
,10.476999,-3.83E-10,,
,10.478999,-3.81E-10,,
,10.480999,-3.80E-10,,
,10.482999,-3.79E-10,,
,10.484999,-3.79E-10,,
,10.486999,-3.79E-10,,
,10.488999,-3.79E-10,,
,10.490999,-3.78E-10,,
,10.492999,-3.76E-10,,
,10.494999,-3.74E-10,,
,10.496999,-3.72E-10,,
,10.498999,-3.70E-10,,
,10.500999,-3.68E-10,,
,10.502999,-3.68E-10,,
,10.504999,-3.66E-10,,
,10.506999,-3.64E-10,,
,10.508999,-3.61E-10,,
,10.510999,-3.58E-10,,
,10.512999,-3.54E-10,,
,10.514999,-3.51E-10,,
,10.516999,-3.49E-10,,
,10.518999,-3.47E-10,,
,10.520999,-3.45E-10,,
,10.522999,-3.43E-10,,
,10.524999,-3.40E-10,,
,10.526999,-3.36E-10,,
,10.528999,-3.31E-10,,
,10.530999,-3.27E-10,,
,10.532999,-3.23E-10,,
,10.534999,-3.20E-10,,
,10.536999,-3.16E-10,,
,10.538999,-3.13E-10,,
,10.540999,-3.08E-10,,
,10.542999,-3.03E-10,,
,10.544999,-2.98E-10,,
,10.546999,-2.92E-10,,
,10.548999,-2.87E-10,,
,10.550999,-2.84E-10,,
,10.552999,-2.80E-10,,
,10.554999,-2.77E-10,,
,10.556999,-2.72E-10,,
,10.558999,-2.67E-10,,
,10.560999,-2.61E-10,,
,10.562999,-2.56E-10,,
,10.564999,-2.51E-10,,
,10.566999,-2.46E-10,,
,10.568999,-2.42E-10,,
,10.570999,-2.38E-10,,
,10.572999,-2.34E-10,,
,10.574999,-2.28E-10,,
,10.576999,-2.22E-10,,
,10.578999,-2.16E-10,,
,10.580999,-2.11E-10,,
,10.582999,-2.05E-10,,
,10.584999,-2.01E-10,,
,10.586999,-1.97E-10,,
,10.588999,-1.93E-10,,
,10.590999,-1.88E-10,,
,10.592999,-1.82E-10,,
,10.594999,-1.75E-10,,
,10.596999,-1.69E-10,,
,10.598999,-1.63E-10,,
,10.600999,-1.58E-10,,
,10.602999,-1.53E-10,,
,10.604999,-1.48E-10,,
,10.606999,-1.42E-10,,
,10.608999,-1.35E-10,,
,10.610999,-1.28E-10,,
,10.612999,-1.21E-10,,
,10.614999,-1.14E-10,,
,10.616999,-1.08E-10,,
,10.618999,-1.03E-10,,
,10.620999,-9.74E-11,,
,10.622999,-9.17E-11,,
,10.624999,-8.53E-11,,
,10.626999,-7.82E-11,,
,10.628999,-7.07E-11,,
,10.630999,-6.30E-11,,
,10.632999,-5.63E-11,,
,10.634999,-5.03E-11,,
,10.636999,-4.46E-11,,
,10.638999,-3.87E-11,,
,10.640999,-3.18E-11,,
,10.642999,-2.44E-11,,
,10.644999,-1.67E-11,,
,10.646999,-9.58E-12,,
,10.648999,-3.03E-12,,
,10.650999,2.77E-12,,
,10.652999,8.24E-12,,
,10.654999,1.38E-11,,
,10.656999,1.99E-11,,
,10.658999,2.68E-11,,
,10.660999,3.39E-11,,
,10.662999,4.12E-11,,
,10.664999,4.81E-11,,
,10.666999,5.43E-11,,
,10.668999,5.96E-11,,
,10.670999,6.48E-11,,
,10.672999,7.05E-11,,
,10.674999,7.72E-11,,
,10.676999,8.41E-11,,
,10.678999,9.12E-11,,
,10.680999,9.79E-11,,
,10.682999,1.04E-10,,
,10.684999,1.09E-10,,
,10.686999,1.13E-10,,
,10.688999,1.18E-10,,
,10.690999,1.24E-10,,
,10.692999,1.30E-10,,
,10.694999,1.37E-10,,
,10.696999,1.44E-10,,
,10.698999,1.49E-10,,
,10.700999,1.54E-10,,
,10.702999,1.59E-10,,
,10.704999,1.63E-10,,
,10.706999,1.68E-10,,
,10.708999,1.74E-10,,
,10.710999,1.80E-10,,
,10.712999,1.85E-10,,
,10.714999,1.91E-10,,
,10.716999,1.95E-10,,
,10.718999,1.99E-10,,
,10.720999,2.02E-10,,
,10.722999,2.06E-10,,
,10.724999,2.11E-10,,
,10.726999,2.16E-10,,
,10.728999,2.22E-10,,
,10.730999,2.27E-10,,
,10.732999,2.31E-10,,
,10.734999,2.35E-10,,
,10.736999,2.38E-10,,
,10.738999,2.42E-10,,
,10.740999,2.46E-10,,
,10.742999,2.50E-10,,
,10.744999,2.55E-10,,
,10.746999,2.59E-10,,
,10.748999,2.63E-10,,
,10.750999,2.66E-10,,
,10.752999,2.68E-10,,
,10.754999,2.70E-10,,
,10.756999,2.74E-10,,
,10.758999,2.77E-10,,
,10.760999,2.81E-10,,
,10.762999,2.85E-10,,
,10.764999,2.89E-10,,
,10.766999,2.92E-10,,
,10.768999,2.94E-10,,
,10.770999,2.96E-10,,
,10.772999,2.99E-10,,
,10.774999,3.01E-10,,
,10.776999,3.05E-10,,
,10.778999,3.09E-10,,
,10.780999,3.12E-10,,
,10.782999,3.15E-10,,
,10.784999,3.16E-10,,
,10.786999,3.18E-10,,
,10.788999,3.20E-10,,
,10.790999,3.22E-10,,
,10.792999,3.25E-10,,
,10.794999,3.29E-10,,
,10.796999,3.32E-10,,
,10.798999,3.35E-10,,
,10.800999,3.37E-10,,
,10.802999,3.39E-10,,
,10.804999,3.40E-10,,
,10.806999,3.42E-10,,
,10.808999,3.45E-10,,
,10.810999,3.47E-10,,
,10.812999,3.50E-10,,
,10.814999,3.53E-10,,
,10.816999,3.55E-10,,
,10.818999,3.56E-10,,
,10.820999,3.57E-10,,
,10.822999,3.58E-10,,
,10.824999,3.60E-10,,
,10.826999,3.63E-10,,
,10.828999,3.66E-10,,
,10.830999,3.69E-10,,
,10.832999,3.71E-10,,
,10.834999,3.73E-10,,
,10.836999,3.74E-10,,
,10.838999,3.76E-10,,
,10.840999,3.78E-10,,
,10.842999,3.81E-10,,
,10.844999,3.85E-10,,
,10.846999,3.89E-10,,
,10.848999,3.92E-10,,
,10.850999,3.95E-10,,
,10.852999,3.97E-10,,
,10.854999,3.99E-10,,
,10.856999,4.02E-10,,
,10.858999,4.06E-10,,
,10.860999,4.10E-10,,
,10.862999,4.14E-10,,
,10.864999,4.18E-10,,
,10.866999,4.20E-10,,
,10.868999,4.23E-10,,
,10.870999,4.25E-10,,
,10.872999,4.29E-10,,
,10.874999,4.33E-10,,
,10.876999,4.38E-10,,
,10.878999,4.43E-10,,
,10.880999,4.47E-10,,
,10.882999,4.52E-10,,
,10.884999,4.55E-10,,
,10.886999,4.58E-10,,
,10.888999,4.61E-10,,
,10.890999,4.64E-10,,
,10.892999,4.68E-10,,
,10.894999,4.73E-10,,
,10.896999,4.77E-10,,
,10.898999,4.81E-10,,
,10.900999,4.85E-10,,
,10.902999,4.87E-10,,
,10.904999,4.90E-10,,
,10.906999,4.93E-10,,
,10.908999,4.98E-10,,
,10.910999,5.02E-10,,
,10.912999,5.06E-10,,
,10.914999,5.09E-10,,
,10.916999,5.12E-10,,
,10.918999,5.13E-10,,
,10.920999,5.15E-10,,
,10.922999,5.17E-10,,
,10.924999,5.19E-10,,
,10.926999,5.22E-10,,
,10.928999,5.26E-10,,
,10.930999,5.29E-10,,
,10.932999,5.31E-10,,
,10.934999,5.33E-10,,
,10.936999,5.35E-10,,
,10.938999,5.38E-10,,
,10.940999,5.40E-10,,
,10.942999,5.44E-10,,
,10.944999,5.47E-10,,
,10.946999,5.50E-10,,
,10.948999,5.51E-10,,
,10.950999,5.53E-10,,
,10.952999,5.53E-10,,
,10.954999,5.53E-10,,
,10.956999,5.54E-10,,
,10.958999,5.55E-10,,
,10.960999,5.57E-10,,
,10.962999,5.59E-10,,
,10.964999,5.61E-10,,
,10.966999,5.61E-10,,
,10.968999,5.61E-10,,
,10.970999,5.60E-10,,
,10.972999,5.60E-10,,
,10.974999,5.61E-10,,
,10.976999,5.62E-10,,
,10.978999,5.63E-10,,
,10.980999,5.63E-10,,
,10.982999,5.63E-10,,
,10.984999,5.61E-10,,
,10.986999,5.60E-10,,
,10.988999,5.58E-10,,
,10.990999,5.57E-10,,
,10.992999,5.57E-10,,
,10.994999,5.56E-10,,
,10.996999,5.56E-10,,
,10.998999,5.55E-10,,
,11.000999,5.54E-10,,
,11.002999,5.53E-10,,
,11.004999,5.51E-10,,
,11.006999,5.50E-10,,
,11.008999,5.50E-10,,
,11.010999,5.50E-10,,
,11.012999,5.51E-10,,
,11.014999,5.50E-10,,
,11.016999,5.49E-10,,
,11.018999,5.47E-10,,
,11.020999,5.45E-10,,
,11.022999,5.44E-10,,
,11.024999,5.43E-10,,
,11.026999,5.43E-10,,
,11.028999,5.44E-10,,
,11.030999,5.44E-10,,
,11.032999,5.43E-10,,
