5/15/2019, 4:35:45 PM ,,,
 Current Sensitivity ,1.00E-09,,,
 This file comes from It only measurement ,0.00E+00,,,
 Sampling rate ,500,,,
 Number of samples per channel ,-1,,,
 No filter from Labview , , , ,
 , ,,,
 ***End_of_Header*** ,,,,
 , Time , Current , Filtered Current , 
,-0.003994,1.57E-10,,
,-0.001994,3.13E-10,,
,5.54E-06,4.69E-10,,
,0.002006,4.66E-10,,
,0.004006,4.64E-10,,
,0.006006,4.61E-10,,
,0.008006,4.58E-10,,
,0.010006,4.55E-10,,
,0.012006,4.53E-10,,
,0.014006,4.51E-10,,
,0.016006,4.49E-10,,
,0.018006,4.48E-10,,
,0.020006,4.45E-10,,
,0.022006,4.42E-10,,
,0.024006,4.39E-10,,
,0.026006,4.37E-10,,
,0.028006,4.35E-10,,
,0.030006,4.33E-10,,
,0.032006,4.31E-10,,
,0.034006,4.29E-10,,
,0.036006,4.26E-10,,
,0.038006,4.23E-10,,
,0.040006,4.20E-10,,
,0.042006,4.18E-10,,
,0.044006,4.16E-10,,
,0.046006,4.14E-10,,
,0.048006,4.11E-10,,
,0.050006,4.09E-10,,
,0.052006,4.07E-10,,
,0.054006,4.04E-10,,
,0.056006,4.01E-10,,
,0.058006,3.98E-10,,
,0.060006,3.95E-10,,
,0.062006,3.94E-10,,
,0.064006,3.92E-10,,
,0.066006,3.91E-10,,
,0.068006,3.89E-10,,
,0.070006,3.86E-10,,
,0.072006,3.83E-10,,
,0.074006,3.80E-10,,
,0.076006,3.78E-10,,
,0.078006,3.76E-10,,
,0.080006,3.75E-10,,
,0.082006,3.74E-10,,
,0.084006,3.72E-10,,
,0.086006,3.69E-10,,
,0.088006,3.67E-10,,
,0.090006,3.65E-10,,
,0.092006,3.63E-10,,
,0.094006,3.61E-10,,
,0.096006,3.60E-10,,
,0.098006,3.59E-10,,
,0.100006,3.58E-10,,
,0.102006,3.56E-10,,
,0.104006,3.54E-10,,
,0.106006,3.52E-10,,
,0.108006,3.50E-10,,
,0.110006,3.48E-10,,
,0.112006,3.47E-10,,
,0.114006,3.46E-10,,
,0.116006,3.44E-10,,
,0.118006,3.43E-10,,
,0.120006,3.41E-10,,
,0.122006,3.38E-10,,
,0.124006,3.36E-10,,
,0.126006,3.34E-10,,
,0.128006,3.33E-10,,
,0.130006,3.32E-10,,
,0.132006,3.31E-10,,
,0.134006,3.29E-10,,
,0.136006,3.28E-10,,
,0.138006,3.26E-10,,
,0.140006,3.24E-10,,
,0.142006,3.22E-10,,
,0.144006,3.21E-10,,
,0.146006,3.20E-10,,
,0.148006,3.19E-10,,
,0.150006,3.18E-10,,
,0.152006,3.16E-10,,
,0.154006,3.14E-10,,
,0.156006,3.12E-10,,
,0.158006,3.10E-10,,
,0.160006,3.09E-10,,
,0.162006,3.08E-10,,
,0.164006,3.07E-10,,
,0.166006,3.06E-10,,
,0.168006,3.05E-10,,
,0.170006,3.04E-10,,
,0.172006,3.02E-10,,
,0.174006,3.00E-10,,
,0.176006,2.98E-10,,
,0.178006,2.97E-10,,
,0.180006,2.97E-10,,
,0.182006,2.96E-10,,
,0.184006,2.95E-10,,
,0.186006,2.94E-10,,
,0.188006,2.92E-10,,
,0.190006,2.90E-10,,
,0.192006,2.89E-10,,
,0.194006,2.87E-10,,
,0.196006,2.87E-10,,
,0.198006,2.87E-10,,
,0.200006,2.86E-10,,
,0.202006,2.85E-10,,
,0.204006,2.83E-10,,
,0.206006,2.82E-10,,
,0.208006,2.80E-10,,
,0.210006,2.79E-10,,
,0.212006,2.78E-10,,
,0.214006,2.78E-10,,
,0.216006,2.77E-10,,
,0.218006,2.76E-10,,
,0.220006,2.75E-10,,
,0.222006,2.73E-10,,
,0.224006,2.71E-10,,
,0.226006,2.70E-10,,
,0.228006,2.68E-10,,
,0.230006,2.68E-10,,
,0.232006,2.68E-10,,
,0.234006,2.67E-10,,
,0.236006,2.66E-10,,
,0.238006,2.64E-10,,
,0.240006,2.62E-10,,
,0.242006,2.61E-10,,
,0.244006,2.60E-10,,
,0.246006,2.59E-10,,
,0.248006,2.58E-10,,
,0.250006,2.57E-10,,
,0.252006,2.56E-10,,
,0.254006,2.54E-10,,
,0.256006,2.53E-10,,
,0.258006,2.51E-10,,
,0.260006,2.50E-10,,
,0.262006,2.49E-10,,
,0.264006,2.48E-10,,
,0.266006,2.47E-10,,
,0.268006,2.46E-10,,
,0.270006,2.45E-10,,
,0.272006,2.43E-10,,
,0.274006,2.42E-10,,
,0.276006,2.40E-10,,
,0.278006,2.40E-10,,
,0.280006,2.39E-10,,
,0.282006,2.39E-10,,
,0.284006,2.37E-10,,
,0.286006,2.36E-10,,
,0.288006,2.34E-10,,
,0.290006,2.32E-10,,
,0.292006,2.31E-10,,
,0.294006,2.30E-10,,
,0.296006,2.29E-10,,
,0.298006,2.28E-10,,
,0.300006,2.28E-10,,
,0.302006,2.27E-10,,
,0.304006,2.26E-10,,
,0.306006,2.24E-10,,
,0.308006,2.23E-10,,
,0.310006,2.21E-10,,
,0.312006,2.21E-10,,
,0.314006,2.21E-10,,
,0.316006,2.20E-10,,
,0.318006,2.19E-10,,
,0.320006,2.18E-10,,
,0.322006,2.17E-10,,
,0.324006,2.15E-10,,
,0.326006,2.14E-10,,
,0.328006,2.14E-10,,
,0.330006,2.14E-10,,
,0.332006,2.14E-10,,
,0.334006,2.13E-10,,
,0.336006,2.13E-10,,
,0.338006,2.12E-10,,
,0.340006,2.11E-10,,
,0.342006,2.10E-10,,
,0.344006,2.09E-10,,
,0.346006,2.09E-10,,
,0.348006,2.09E-10,,
,0.350006,2.09E-10,,
,0.352006,2.08E-10,,
,0.354006,2.07E-10,,
,0.356006,2.06E-10,,
,0.358006,2.05E-10,,
,0.360006,2.05E-10,,
,0.362006,2.05E-10,,
,0.364006,2.05E-10,,
,0.366006,2.06E-10,,
,0.368006,2.06E-10,,
,0.370006,2.06E-10,,
,0.372006,2.05E-10,,
,0.374006,2.05E-10,,
,0.376006,2.05E-10,,
,0.378006,2.05E-10,,
,0.380006,2.06E-10,,
,0.382006,2.07E-10,,
,0.384006,2.07E-10,,
,0.386006,2.07E-10,,
,0.388006,2.07E-10,,
,0.390006,2.07E-10,,
,0.392006,2.07E-10,,
,0.394006,2.08E-10,,
,0.396006,2.09E-10,,
,0.398006,2.10E-10,,
,0.400006,2.11E-10,,
,0.402006,2.12E-10,,
,0.404006,2.12E-10,,
,0.406006,2.13E-10,,
,0.408006,2.13E-10,,
,0.410006,2.14E-10,,
,0.412006,2.15E-10,,
,0.414006,2.16E-10,,
,0.416006,2.17E-10,,
,0.418006,2.18E-10,,
,0.420006,2.19E-10,,
,0.422006,2.19E-10,,
,0.424006,2.20E-10,,
,0.426006,2.20E-10,,
,0.428006,2.21E-10,,
,0.430006,2.23E-10,,
,0.432006,2.24E-10,,
,0.434006,2.26E-10,,
,0.436006,2.26E-10,,
,0.438006,2.27E-10,,
,0.440006,2.27E-10,,
,0.442006,2.28E-10,,
,0.444006,2.28E-10,,
,0.446006,2.30E-10,,
,0.448006,2.31E-10,,
,0.450006,2.32E-10,,
,0.452006,2.33E-10,,
,0.454006,2.33E-10,,
,0.456006,2.33E-10,,
,0.458006,2.33E-10,,
,0.460006,2.33E-10,,
,0.462006,2.35E-10,,
,0.464006,2.36E-10,,
,0.466006,2.37E-10,,
,0.468006,2.38E-10,,
,0.470006,2.38E-10,,
,0.472006,2.38E-10,,
,0.474006,2.38E-10,,
,0.476006,2.39E-10,,
,0.478006,2.40E-10,,
,0.480006,2.41E-10,,
,0.482006,2.42E-10,,
,0.484006,2.43E-10,,
,0.486006,2.44E-10,,
,0.488006,2.44E-10,,
,0.490006,2.44E-10,,
,0.492006,2.45E-10,,
,0.494006,2.45E-10,,
,0.496006,2.46E-10,,
,0.498006,2.48E-10,,
,0.500006,2.49E-10,,
,0.502006,2.50E-10,,
,0.504006,2.51E-10,,
,0.506006,2.51E-10,,
,0.508006,2.51E-10,,
,0.510006,2.52E-10,,
,0.512006,2.53E-10,,
,0.514006,2.55E-10,,
,0.516006,2.56E-10,,
,0.518006,2.57E-10,,
,0.520006,2.58E-10,,
,0.522006,2.58E-10,,
,0.524006,2.58E-10,,
,0.526006,2.58E-10,,
,0.528006,2.60E-10,,
,0.530006,2.61E-10,,
,0.532006,2.63E-10,,
,0.534006,2.64E-10,,
,0.536006,2.65E-10,,
,0.538006,2.66E-10,,
,0.540006,2.67E-10,,
,0.542006,2.67E-10,,
,0.544006,2.68E-10,,
,0.546006,2.70E-10,,
,0.548006,2.71E-10,,
,0.550006,2.73E-10,,
,0.552006,2.73E-10,,
,0.554006,2.74E-10,,
,0.556006,2.74E-10,,
,0.558006,2.74E-10,,
,0.560006,2.75E-10,,
,0.562006,2.77E-10,,
,0.564006,2.78E-10,,
,0.566006,2.79E-10,,
,0.568006,2.80E-10,,
,0.570006,2.81E-10,,
,0.572006,2.81E-10,,
,0.574006,2.81E-10,,
,0.576006,2.82E-10,,
,0.578006,2.82E-10,,
,0.580006,2.83E-10,,
,0.582006,2.84E-10,,
,0.584006,2.85E-10,,
,0.586006,2.86E-10,,
,0.588006,2.85E-10,,
,0.590006,2.85E-10,,
,0.592006,2.85E-10,,
,0.594006,2.85E-10,,
,0.596006,2.86E-10,,
,0.598006,2.87E-10,,
,0.600006,2.87E-10,,
,0.602006,2.88E-10,,
,0.604006,2.88E-10,,
,0.606006,2.87E-10,,
,0.608006,2.87E-10,,
,0.610006,2.87E-10,,
,0.612006,2.87E-10,,
,0.614006,2.87E-10,,
,0.616006,2.87E-10,,
,0.618006,2.87E-10,,
,0.620006,2.86E-10,,
,0.622006,2.85E-10,,
,0.624006,2.84E-10,,
,0.626006,2.83E-10,,
,0.628006,2.83E-10,,
,0.630006,2.83E-10,,
,0.632006,2.83E-10,,
,0.634006,2.83E-10,,
,0.636006,2.82E-10,,
,0.638006,2.81E-10,,
,0.640006,2.79E-10,,
,0.642006,2.78E-10,,
,0.644006,2.78E-10,,
,0.646006,2.77E-10,,
,0.648006,2.77E-10,,
,0.650006,2.76E-10,,
,0.652006,2.75E-10,,
,0.654006,2.73E-10,,
,0.656006,2.71E-10,,
,0.658006,2.69E-10,,
,0.660006,2.68E-10,,
,0.662006,2.66E-10,,
,0.664006,2.66E-10,,
,0.666006,2.65E-10,,
,0.668006,2.64E-10,,
,0.670006,2.62E-10,,
,0.672006,2.60E-10,,
,0.674006,2.58E-10,,
,0.676006,2.56E-10,,
,0.678006,2.55E-10,,
,0.680006,2.53E-10,,
,0.682006,2.52E-10,,
,0.684006,2.51E-10,,
,0.686006,2.49E-10,,
,0.688006,2.47E-10,,
,0.690006,2.44E-10,,
,0.692006,2.41E-10,,
,0.694006,2.40E-10,,
,0.696006,2.38E-10,,
,0.698006,2.37E-10,,
,0.700006,2.35E-10,,
,0.702006,2.33E-10,,
,0.704006,2.30E-10,,
,0.706006,2.28E-10,,
,0.708006,2.25E-10,,
,0.710006,2.22E-10,,
,0.712006,2.20E-10,,
,0.714006,2.19E-10,,
,0.716006,2.17E-10,,
,0.718006,2.14E-10,,
,0.720006,2.12E-10,,
,0.722006,2.09E-10,,
,0.724006,2.06E-10,,
,0.726006,2.03E-10,,
,0.728006,2.01E-10,,
,0.730006,1.99E-10,,
,0.732006,1.97E-10,,
,0.734006,1.95E-10,,
,0.736006,1.93E-10,,
,0.738006,1.90E-10,,
,0.740006,1.87E-10,,
,0.742006,1.84E-10,,
,0.744006,1.81E-10,,
,0.746006,1.80E-10,,
,0.748006,1.78E-10,,
,0.750006,1.76E-10,,
,0.752006,1.73E-10,,
,0.754006,1.71E-10,,
,0.756006,1.67E-10,,
,0.758006,1.65E-10,,
,0.760006,1.62E-10,,
,0.762006,1.60E-10,,
,0.764006,1.59E-10,,
,0.766006,1.57E-10,,
,0.768006,1.55E-10,,
,0.770006,1.53E-10,,
,0.772006,1.50E-10,,
,0.774006,1.48E-10,,
,0.776006,1.46E-10,,
,0.778006,1.44E-10,,
,0.780006,1.43E-10,,
,0.782006,1.42E-10,,
,0.784006,1.42E-10,,
,0.786006,1.41E-10,,
,0.788006,1.39E-10,,
,0.790006,1.37E-10,,
,0.792006,1.36E-10,,
,0.794006,1.35E-10,,
,0.796006,1.34E-10,,
,0.798006,1.34E-10,,
,0.800006,1.35E-10,,
,0.802006,1.34E-10,,
,0.804006,1.34E-10,,
,0.806006,1.32E-10,,
,0.808006,1.31E-10,,
,0.810006,1.30E-10,,
,0.812006,1.30E-10,,
,0.814006,1.30E-10,,
,0.816006,1.30E-10,,
,0.818006,1.29E-10,,
,0.820006,1.28E-10,,
,0.822006,1.27E-10,,
,0.824006,1.25E-10,,
,0.826006,1.24E-10,,
,0.828006,1.24E-10,,
,0.830006,1.24E-10,,
,0.832006,1.24E-10,,
,0.834006,1.24E-10,,
,0.836006,1.24E-10,,
,0.838006,1.23E-10,,
,0.840006,1.22E-10,,
,0.842006,1.22E-10,,
,0.844006,1.22E-10,,
,0.846006,1.22E-10,,
,0.848006,1.23E-10,,
,0.850006,1.24E-10,,
,0.852006,1.24E-10,,
,0.854006,1.24E-10,,
,0.856006,1.23E-10,,
,0.858006,1.22E-10,,
,0.860006,1.22E-10,,
,0.862006,1.22E-10,,
,0.864006,1.23E-10,,
,0.866006,1.24E-10,,
,0.868006,1.24E-10,,
,0.870006,1.25E-10,,
,0.872006,1.24E-10,,
,0.874006,1.23E-10,,
,0.876006,1.22E-10,,
,0.878006,1.22E-10,,
,0.880006,1.23E-10,,
,0.882006,1.23E-10,,
,0.884006,1.24E-10,,
,0.886006,1.23E-10,,
,0.888006,1.22E-10,,
,0.890006,1.21E-10,,
,0.892006,1.20E-10,,
,0.894006,1.20E-10,,
,0.896006,1.19E-10,,
,0.898006,1.19E-10,,
,0.900006,1.19E-10,,
,0.902006,1.18E-10,,
,0.904006,1.16E-10,,
,0.906006,1.14E-10,,
,0.908006,1.12E-10,,
,0.910006,1.11E-10,,
,0.912006,1.09E-10,,
,0.914006,1.08E-10,,
,0.916006,1.06E-10,,
,0.918006,1.05E-10,,
,0.920006,1.03E-10,,
,0.922006,9.97E-11,,
,0.924006,9.68E-11,,
,0.926006,9.39E-11,,
,0.928006,9.18E-11,,
,0.930006,9.02E-11,,
,0.932006,8.90E-11,,
,0.934006,8.74E-11,,
,0.936006,8.51E-11,,
,0.938006,8.23E-11,,
,0.940006,7.94E-11,,
,0.942006,7.63E-11,,
,0.944006,7.36E-11,,
,0.946006,7.14E-11,,
,0.948006,6.99E-11,,
,0.950006,6.86E-11,,
,0.952006,6.69E-11,,
,0.954006,6.47E-11,,
,0.956006,6.15E-11,,
,0.958006,5.89E-11,,
,0.960006,5.66E-11,,
,0.962006,5.54E-11,,
,0.964006,5.45E-11,,
,0.966006,5.40E-11,,
,0.968006,5.34E-11,,
,0.970006,5.20E-11,,
,0.972006,5.04E-11,,
,0.974006,4.86E-11,,
,0.976006,4.73E-11,,
,0.978006,4.66E-11,,
,0.980006,4.65E-11,,
,0.982006,4.68E-11,,
,0.984006,4.71E-11,,
,0.986006,4.69E-11,,
,0.988006,4.61E-11,,
,0.990006,4.51E-11,,
,0.992006,4.39E-11,,
,0.994006,4.36E-11,,
,0.996006,4.38E-11,,
,0.998006,4.50E-11,,
,1.000006,4.59E-11,,
,1.002006,4.67E-11,,
,1.004006,4.69E-11,,
,1.006006,4.67E-11,,
,1.008006,4.67E-11,,
,1.010006,4.67E-11,,
,1.012006,4.74E-11,,
,1.014006,4.85E-11,,
,1.016006,5.01E-11,,
,1.018006,5.16E-11,,
,1.020006,5.26E-11,,
,1.022006,5.30E-11,,
,1.024006,5.31E-11,,
,1.026006,5.34E-11,,
,1.028006,5.45E-11,,
,1.030006,5.62E-11,,
,1.032006,5.85E-11,,
,1.034006,6.06E-11,,
,1.036006,6.22E-11,,
,1.038006,6.34E-11,,
,1.040006,6.41E-11,,
,1.042006,6.48E-11,,
,1.044006,6.57E-11,,
,1.046006,6.75E-11,,
,1.048006,6.96E-11,,
,1.050006,7.23E-11,,
,1.052006,7.41E-11,,
,1.054006,7.54E-11,,
,1.056006,7.61E-11,,
,1.058006,7.69E-11,,
,1.060006,7.80E-11,,
,1.062006,7.96E-11,,
,1.064006,8.21E-11,,
,1.066006,8.48E-11,,
,1.068006,8.77E-11,,
,1.070006,8.97E-11,,
,1.072006,9.12E-11,,
,1.074006,9.20E-11,,
,1.076006,9.28E-11,,
,1.078006,9.48E-11,,
,1.080006,9.76E-11,,
,1.082006,1.01E-10,,
,1.084006,1.04E-10,,
,1.086006,1.06E-10,,
,1.088006,1.08E-10,,
,1.090006,1.09E-10,,
,1.092006,1.10E-10,,
,1.094006,1.12E-10,,
,1.096006,1.15E-10,,
,1.098006,1.18E-10,,
,1.100006,1.21E-10,,
,1.102006,1.23E-10,,
,1.104006,1.25E-10,,
,1.106006,1.27E-10,,
,1.108006,1.28E-10,,
,1.110006,1.30E-10,,
,1.112006,1.33E-10,,
,1.114006,1.36E-10,,
,1.116006,1.39E-10,,
,1.118006,1.42E-10,,
,1.120006,1.44E-10,,
,1.122006,1.45E-10,,
,1.124006,1.46E-10,,
,1.126006,1.48E-10,,
,1.128006,1.50E-10,,
,1.130006,1.53E-10,,
,1.132006,1.56E-10,,
,1.134006,1.60E-10,,
,1.136006,1.62E-10,,
,1.138006,1.64E-10,,
,1.140006,1.66E-10,,
,1.142006,1.67E-10,,
,1.144006,1.69E-10,,
,1.146006,1.72E-10,,
,1.148006,1.75E-10,,
,1.150006,1.78E-10,,
,1.152006,1.80E-10,,
,1.154006,1.82E-10,,
,1.156006,1.84E-10,,
,1.158006,1.85E-10,,
,1.160006,1.87E-10,,
,1.162006,1.89E-10,,
,1.164006,1.93E-10,,
,1.166006,1.96E-10,,
,1.168006,1.99E-10,,
,1.170006,2.01E-10,,
,1.172006,2.03E-10,,
,1.174006,2.04E-10,,
,1.176006,2.05E-10,,
,1.178006,2.07E-10,,
,1.180006,2.10E-10,,
,1.182006,2.14E-10,,
,1.184006,2.17E-10,,
,1.186006,2.20E-10,,
,1.188006,2.21E-10,,
,1.190006,2.22E-10,,
,1.192006,2.23E-10,,
,1.194006,2.25E-10,,
,1.196006,2.27E-10,,
,1.198006,2.30E-10,,
,1.200006,2.33E-10,,
,1.202006,2.36E-10,,
,1.204006,2.37E-10,,
,1.206006,2.38E-10,,
,1.208006,2.39E-10,,
,1.210006,2.40E-10,,
,1.212006,2.42E-10,,
,1.214006,2.44E-10,,
,1.216006,2.46E-10,,
,1.218006,2.48E-10,,
,1.220006,2.49E-10,,
,1.222006,2.50E-10,,
,1.224006,2.50E-10,,
,1.226006,2.50E-10,,
,1.228006,2.51E-10,,
,1.230006,2.53E-10,,
,1.232006,2.55E-10,,
,1.234006,2.57E-10,,
,1.236006,2.58E-10,,
,1.238006,2.58E-10,,
,1.240006,2.58E-10,,
,1.242006,2.59E-10,,
,1.244006,2.59E-10,,
,1.246006,2.60E-10,,
,1.248006,2.62E-10,,
,1.250006,2.63E-10,,
,1.252006,2.64E-10,,
,1.254006,2.65E-10,,
,1.256006,2.65E-10,,
,1.258006,2.64E-10,,
,1.260006,2.64E-10,,
,1.262006,2.65E-10,,
,1.264006,2.67E-10,,
,1.266006,2.68E-10,,
,1.268006,2.69E-10,,
,1.270006,2.70E-10,,
,1.272006,2.70E-10,,
,1.274006,2.70E-10,,
,1.276006,2.69E-10,,
,1.278006,2.70E-10,,
,1.280006,2.71E-10,,
,1.282006,2.72E-10,,
,1.284006,2.73E-10,,
,1.286006,2.74E-10,,
,1.288006,2.74E-10,,
,1.290006,2.73E-10,,
,1.292006,2.73E-10,,
,1.294006,2.73E-10,,
,1.296006,2.74E-10,,
,1.298006,2.75E-10,,
,1.300006,2.76E-10,,
,1.302006,2.77E-10,,
,1.304006,2.77E-10,,
,1.306006,2.77E-10,,
,1.308006,2.76E-10,,
,1.310006,2.76E-10,,
,1.312006,2.77E-10,,
,1.314006,2.78E-10,,
,1.316006,2.80E-10,,
,1.318006,2.81E-10,,
,1.320006,2.81E-10,,
,1.322006,2.81E-10,,
,1.324006,2.80E-10,,
,1.326006,2.80E-10,,
,1.328006,2.80E-10,,
,1.330006,2.81E-10,,
,1.332006,2.83E-10,,
,1.334006,2.84E-10,,
,1.336006,2.85E-10,,
,1.338006,2.86E-10,,
,1.340006,2.85E-10,,
,1.342006,2.84E-10,,
,1.344006,2.85E-10,,
,1.346006,2.86E-10,,
,1.348006,2.87E-10,,
,1.350006,2.89E-10,,
,1.352006,2.90E-10,,
,1.354006,2.90E-10,,
,1.356006,2.90E-10,,
,1.358006,2.90E-10,,
,1.360006,2.90E-10,,
,1.362006,2.91E-10,,
,1.364006,2.92E-10,,
,1.366006,2.94E-10,,
,1.368006,2.96E-10,,
,1.370006,2.96E-10,,
,1.372006,2.96E-10,,
,1.374006,2.96E-10,,
,1.376006,2.96E-10,,
,1.378006,2.97E-10,,
,1.380006,2.98E-10,,
,1.382006,3.00E-10,,
,1.384006,3.01E-10,,
,1.386006,3.02E-10,,
,1.388006,3.02E-10,,
,1.390006,3.01E-10,,
,1.392006,3.01E-10,,
,1.394006,3.01E-10,,
,1.396006,3.02E-10,,
,1.398006,3.03E-10,,
,1.400006,3.05E-10,,
,1.402006,3.06E-10,,
,1.404006,3.06E-10,,
,1.406006,3.06E-10,,
,1.408006,3.06E-10,,
,1.410006,3.06E-10,,
,1.412006,3.06E-10,,
,1.414006,3.07E-10,,
,1.416006,3.09E-10,,
,1.418006,3.10E-10,,
,1.420006,3.10E-10,,
,1.422006,3.10E-10,,
,1.424006,3.09E-10,,
,1.426006,3.09E-10,,
,1.428006,3.09E-10,,
,1.430006,3.09E-10,,
,1.432006,3.10E-10,,
,1.434006,3.11E-10,,
,1.436006,3.12E-10,,
,1.438006,3.11E-10,,
,1.440006,3.10E-10,,
,1.442006,3.09E-10,,
,1.444006,3.09E-10,,
,1.446006,3.09E-10,,
,1.448006,3.10E-10,,
,1.450006,3.10E-10,,
,1.452006,3.11E-10,,
,1.454006,3.10E-10,,
,1.456006,3.09E-10,,
,1.458006,3.08E-10,,
,1.460006,3.07E-10,,
,1.462006,3.07E-10,,
,1.464006,3.07E-10,,
,1.466006,3.08E-10,,
,1.468006,3.09E-10,,
,1.470006,3.09E-10,,
,1.472006,3.08E-10,,
,1.474006,3.07E-10,,
,1.476006,3.06E-10,,
,1.478006,3.05E-10,,
,1.480006,3.05E-10,,
,1.482006,3.06E-10,,
,1.484006,3.07E-10,,
,1.486006,3.07E-10,,
,1.488006,3.06E-10,,
,1.490006,3.04E-10,,
,1.492006,3.03E-10,,
,1.494006,3.02E-10,,
,1.496006,3.02E-10,,
,1.498006,3.03E-10,,
,1.500006,3.03E-10,,
,1.502006,3.03E-10,,
,1.504006,3.02E-10,,
,1.506006,3.01E-10,,
,1.508006,3.00E-10,,
,1.510006,2.99E-10,,
,1.512006,2.98E-10,,
,1.514006,2.98E-10,,
,1.516006,2.99E-10,,
,1.518006,2.99E-10,,
,1.520006,2.98E-10,,
,1.522006,2.96E-10,,
,1.524006,2.95E-10,,
,1.526006,2.93E-10,,
,1.528006,2.93E-10,,
,1.530006,2.93E-10,,
,1.532006,2.93E-10,,
,1.534006,2.93E-10,,
,1.536006,2.93E-10,,
,1.538006,2.92E-10,,
,1.540006,2.90E-10,,
,1.542006,2.89E-10,,
,1.544006,2.88E-10,,
,1.546006,2.88E-10,,
,1.548006,2.88E-10,,
,1.550006,2.88E-10,,
,1.552006,2.88E-10,,
,1.554006,2.87E-10,,
,1.556006,2.85E-10,,
,1.558006,2.83E-10,,
,1.560006,2.82E-10,,
,1.562006,2.82E-10,,
,1.564006,2.82E-10,,
,1.566006,2.82E-10,,
,1.568006,2.82E-10,,
,1.570006,2.81E-10,,
,1.572006,2.80E-10,,
,1.574006,2.78E-10,,
,1.576006,2.77E-10,,
,1.578006,2.76E-10,,
,1.580006,2.76E-10,,
,1.582006,2.76E-10,,
,1.584006,2.76E-10,,
,1.586006,2.76E-10,,
,1.588006,2.74E-10,,
,1.590006,2.73E-10,,
,1.592006,2.71E-10,,
,1.594006,2.70E-10,,
,1.596006,2.70E-10,,
,1.598006,2.70E-10,,
,1.600006,2.71E-10,,
,1.602006,2.71E-10,,
,1.604006,2.70E-10,,
,1.606006,2.69E-10,,
,1.608006,2.67E-10,,
,1.610006,2.66E-10,,
,1.612006,2.65E-10,,
,1.614006,2.66E-10,,
,1.616006,2.66E-10,,
,1.618006,2.66E-10,,
,1.620006,2.65E-10,,
,1.622006,2.64E-10,,
,1.624006,2.62E-10,,
,1.626006,2.61E-10,,
,1.628006,2.60E-10,,
,1.630006,2.61E-10,,
,1.632006,2.61E-10,,
,1.634006,2.61E-10,,
,1.636006,2.61E-10,,
,1.638006,2.60E-10,,
,1.640006,2.59E-10,,
,1.642006,2.58E-10,,
,1.644006,2.57E-10,,
,1.646006,2.57E-10,,
,1.648006,2.58E-10,,
,1.650006,2.58E-10,,
,1.652006,2.58E-10,,
,1.654006,2.58E-10,,
,1.656006,2.57E-10,,
,1.658006,2.55E-10,,
,1.660006,2.54E-10,,
,1.662006,2.54E-10,,
,1.664006,2.55E-10,,
,1.666006,2.56E-10,,
,1.668006,2.56E-10,,
,1.670006,2.56E-10,,
,1.672006,2.55E-10,,
,1.674006,2.54E-10,,
,1.676006,2.52E-10,,
,1.678006,2.52E-10,,
,1.680006,2.52E-10,,
,1.682006,2.53E-10,,
,1.684006,2.54E-10,,
,1.686006,2.54E-10,,
,1.688006,2.53E-10,,
,1.690006,2.52E-10,,
,1.692006,2.50E-10,,
,1.694006,2.50E-10,,
,1.696006,2.50E-10,,
,1.698006,2.51E-10,,
,1.700006,2.51E-10,,
,1.702006,2.52E-10,,
,1.704006,2.51E-10,,
,1.706006,2.50E-10,,
,1.708006,2.49E-10,,
,1.710006,2.48E-10,,
,1.712006,2.47E-10,,
,1.714006,2.47E-10,,
,1.716006,2.48E-10,,
,1.718006,2.48E-10,,
,1.720006,2.47E-10,,
,1.722006,2.46E-10,,
,1.724006,2.45E-10,,
,1.726006,2.43E-10,,
,1.728006,2.42E-10,,
,1.730006,2.42E-10,,
,1.732006,2.43E-10,,
,1.734006,2.43E-10,,
,1.736006,2.43E-10,,
,1.738006,2.43E-10,,
,1.740006,2.42E-10,,
,1.742006,2.40E-10,,
,1.744006,2.39E-10,,
,1.746006,2.39E-10,,
,1.748006,2.39E-10,,
,1.750006,2.39E-10,,
,1.752006,2.39E-10,,
,1.754006,2.38E-10,,
,1.756006,2.36E-10,,
,1.758006,2.35E-10,,
,1.760006,2.33E-10,,
,1.762006,2.32E-10,,
,1.764006,2.32E-10,,
,1.766006,2.32E-10,,
,1.768006,2.32E-10,,
,1.770006,2.31E-10,,
,1.772006,2.30E-10,,
,1.774006,2.28E-10,,
,1.776006,2.26E-10,,
,1.778006,2.26E-10,,
,1.780006,2.25E-10,,
,1.782006,2.26E-10,,
,1.784006,2.26E-10,,
,1.786006,2.25E-10,,
,1.788006,2.24E-10,,
,1.790006,2.21E-10,,
,1.792006,2.20E-10,,
,1.794006,2.18E-10,,
,1.796006,2.18E-10,,
,1.798006,2.18E-10,,
,1.800006,2.18E-10,,
,1.802006,2.17E-10,,
,1.804006,2.17E-10,,
,1.806006,2.15E-10,,
,1.808006,2.13E-10,,
,1.810006,2.11E-10,,
,1.812006,2.11E-10,,
,1.814006,2.10E-10,,
,1.816006,2.11E-10,,
,1.818006,2.10E-10,,
,1.820006,2.09E-10,,
,1.822006,2.08E-10,,
,1.824006,2.05E-10,,
,1.826006,2.04E-10,,
,1.828006,2.02E-10,,
,1.830006,2.02E-10,,
,1.832006,2.02E-10,,
,1.834006,2.02E-10,,
,1.836006,2.02E-10,,
,1.838006,2.00E-10,,
,1.840006,1.99E-10,,
,1.842006,1.97E-10,,
,1.844006,1.96E-10,,
,1.846006,1.95E-10,,
,1.848006,1.95E-10,,
,1.850006,1.95E-10,,
,1.852006,1.95E-10,,
,1.854006,1.93E-10,,
,1.856006,1.91E-10,,
,1.858006,1.89E-10,,
,1.860006,1.88E-10,,
,1.862006,1.87E-10,,
,1.864006,1.87E-10,,
,1.866006,1.88E-10,,
,1.868006,1.87E-10,,
,1.870006,1.87E-10,,
,1.872006,1.85E-10,,
,1.874006,1.83E-10,,
,1.876006,1.82E-10,,
,1.878006,1.81E-10,,
,1.880006,1.81E-10,,
,1.882006,1.81E-10,,
,1.884006,1.81E-10,,
,1.886006,1.80E-10,,
,1.888006,1.79E-10,,
,1.890006,1.77E-10,,
,1.892006,1.75E-10,,
,1.894006,1.74E-10,,
,1.896006,1.74E-10,,
,1.898006,1.74E-10,,
,1.900006,1.75E-10,,
,1.902006,1.74E-10,,
,1.904006,1.74E-10,,
,1.906006,1.72E-10,,
,1.908006,1.71E-10,,
,1.910006,1.69E-10,,
,1.912006,1.69E-10,,
,1.914006,1.69E-10,,
,1.916006,1.69E-10,,
,1.918006,1.69E-10,,
,1.920006,1.68E-10,,
,1.922006,1.67E-10,,
,1.924006,1.65E-10,,
,1.926006,1.63E-10,,
,1.928006,1.63E-10,,
,1.930006,1.63E-10,,
,1.932006,1.63E-10,,
,1.934006,1.63E-10,,
,1.936006,1.63E-10,,
,1.938006,1.62E-10,,
,1.940006,1.60E-10,,
,1.942006,1.58E-10,,
,1.944006,1.57E-10,,
,1.946006,1.57E-10,,
,1.948006,1.57E-10,,
,1.950006,1.58E-10,,
,1.952006,1.58E-10,,
,1.954006,1.57E-10,,
,1.956006,1.55E-10,,
,1.958006,1.54E-10,,
,1.960006,1.53E-10,,
,1.962006,1.52E-10,,
,1.964006,1.52E-10,,
,1.966006,1.53E-10,,
,1.968006,1.53E-10,,
,1.970006,1.53E-10,,
,1.972006,1.52E-10,,
,1.974006,1.50E-10,,
,1.976006,1.48E-10,,
,1.978006,1.47E-10,,
,1.980006,1.48E-10,,
,1.982006,1.48E-10,,
,1.984006,1.48E-10,,
,1.986006,1.48E-10,,
,1.988006,1.47E-10,,
,1.990006,1.46E-10,,
,1.992006,1.44E-10,,
,1.994006,1.43E-10,,
,1.996006,1.43E-10,,
,1.998006,1.43E-10,,
,2.000006,1.44E-10,,
,2.002006,1.44E-10,,
,2.004006,1.43E-10,,
,2.006006,1.41E-10,,
,2.008006,1.40E-10,,
,2.010006,1.39E-10,,
,2.012006,1.39E-10,,
,2.014006,1.39E-10,,
,2.016006,1.39E-10,,
,2.018006,1.39E-10,,
,2.020006,1.39E-10,,
,2.022006,1.38E-10,,
,2.024006,1.36E-10,,
,2.026006,1.35E-10,,
,2.028006,1.34E-10,,
,2.030006,1.34E-10,,
,2.032006,1.35E-10,,
,2.034006,1.35E-10,,
,2.036006,1.35E-10,,
,2.038006,1.34E-10,,
,2.040006,1.33E-10,,
,2.042006,1.32E-10,,
,2.044006,1.31E-10,,
,2.046006,1.31E-10,,
,2.048006,1.31E-10,,
,2.050006,1.31E-10,,
,2.052006,1.31E-10,,
,2.054006,1.31E-10,,
,2.056006,1.29E-10,,
,2.058006,1.28E-10,,
,2.060006,1.27E-10,,
,2.062006,1.27E-10,,
,2.064006,1.27E-10,,
,2.066006,1.28E-10,,
,2.068006,1.28E-10,,
,2.070006,1.28E-10,,
,2.072006,1.27E-10,,
,2.074006,1.25E-10,,
,2.076006,1.24E-10,,
,2.078006,1.24E-10,,
,2.080006,1.24E-10,,
,2.082006,1.25E-10,,
,2.084006,1.25E-10,,
,2.086006,1.25E-10,,
,2.088006,1.25E-10,,
,2.090006,1.23E-10,,
,2.092006,1.22E-10,,
,2.094006,1.22E-10,,
,2.096006,1.22E-10,,
,2.098006,1.23E-10,,
,2.100006,1.23E-10,,
,2.102006,1.24E-10,,
,2.104006,1.24E-10,,
,2.106006,1.23E-10,,
,2.108006,1.22E-10,,
,2.110006,1.22E-10,,
,2.112006,1.22E-10,,
,2.114006,1.23E-10,,
,2.116006,1.24E-10,,
,2.118006,1.24E-10,,
,2.120006,1.24E-10,,
,2.122006,1.23E-10,,
,2.124006,1.22E-10,,
,2.126006,1.22E-10,,
,2.128006,1.22E-10,,
,2.130006,1.22E-10,,
,2.132006,1.23E-10,,
,2.134006,1.24E-10,,
,2.136006,1.25E-10,,
,2.138006,1.25E-10,,
,2.140006,1.24E-10,,
,2.142006,1.23E-10,,
,2.144006,1.24E-10,,
,2.146006,1.24E-10,,
,2.148006,1.25E-10,,
,2.150006,1.27E-10,,
,2.152006,1.28E-10,,
,2.154006,1.28E-10,,
,2.156006,1.27E-10,,
,2.158006,1.26E-10,,
,2.160006,1.25E-10,,
,2.162006,1.26E-10,,
,2.164006,1.27E-10,,
,2.166006,1.28E-10,,
,2.168006,1.29E-10,,
,2.170006,1.30E-10,,
,2.172006,1.29E-10,,
,2.174006,1.29E-10,,
,2.176006,1.28E-10,,
,2.178006,1.28E-10,,
,2.180006,1.29E-10,,
,2.182006,1.31E-10,,
,2.184006,1.32E-10,,
,2.186006,1.32E-10,,
,2.188006,1.32E-10,,
,2.190006,1.31E-10,,
,2.192006,1.30E-10,,
,2.194006,1.30E-10,,
,2.196006,1.31E-10,,
,2.198006,1.32E-10,,
,2.200006,1.33E-10,,
,2.202006,1.34E-10,,
,2.204006,1.34E-10,,
,2.206006,1.33E-10,,
,2.208006,1.32E-10,,
,2.210006,1.32E-10,,
,2.212006,1.33E-10,,
,2.214006,1.34E-10,,
,2.216006,1.35E-10,,
,2.218006,1.36E-10,,
,2.220006,1.36E-10,,
,2.222006,1.35E-10,,
,2.224006,1.34E-10,,
,2.226006,1.33E-10,,
,2.228006,1.34E-10,,
,2.230006,1.35E-10,,
,2.232006,1.36E-10,,
,2.234006,1.37E-10,,
,2.236006,1.38E-10,,
,2.238006,1.38E-10,,
,2.240006,1.38E-10,,
,2.242006,1.37E-10,,
,2.244006,1.37E-10,,
,2.246006,1.38E-10,,
,2.248006,1.40E-10,,
,2.250006,1.41E-10,,
,2.252006,1.42E-10,,
,2.254006,1.42E-10,,
,2.256006,1.42E-10,,
,2.258006,1.41E-10,,
,2.260006,1.41E-10,,
,2.262006,1.42E-10,,
,2.264006,1.43E-10,,
,2.266006,1.44E-10,,
,2.268006,1.45E-10,,
,2.270006,1.46E-10,,
,2.272006,1.46E-10,,
,2.274006,1.45E-10,,
,2.276006,1.45E-10,,
,2.278006,1.46E-10,,
,2.280006,1.47E-10,,
,2.282006,1.49E-10,,
,2.284006,1.50E-10,,
,2.286006,1.50E-10,,
,2.288006,1.50E-10,,
,2.290006,1.50E-10,,
,2.292006,1.49E-10,,
,2.294006,1.49E-10,,
,2.296006,1.50E-10,,
,2.298006,1.51E-10,,
,2.300006,1.53E-10,,
,2.302006,1.54E-10,,
,2.304006,1.54E-10,,
,2.306006,1.53E-10,,
,2.308006,1.52E-10,,
,2.310006,1.52E-10,,
,2.312006,1.52E-10,,
,2.314006,1.53E-10,,
,2.316006,1.54E-10,,
,2.318006,1.55E-10,,
,2.320006,1.55E-10,,
,2.322006,1.54E-10,,
,2.324006,1.53E-10,,
,2.326006,1.52E-10,,
,2.328006,1.52E-10,,
,2.330006,1.53E-10,,
,2.332006,1.54E-10,,
,2.334006,1.55E-10,,
,2.336006,1.55E-10,,
,2.338006,1.54E-10,,
,2.340006,1.53E-10,,
,2.342006,1.52E-10,,
,2.344006,1.52E-10,,
,2.346006,1.52E-10,,
,2.348006,1.53E-10,,
,2.350006,1.54E-10,,
,2.352006,1.54E-10,,
,2.354006,1.53E-10,,
,2.356006,1.52E-10,,
,2.358006,1.51E-10,,
,2.360006,1.50E-10,,
,2.362006,1.50E-10,,
,2.364006,1.50E-10,,
,2.366006,1.51E-10,,
,2.368006,1.51E-10,,
,2.370006,1.51E-10,,
,2.372006,1.50E-10,,
,2.374006,1.48E-10,,
,2.376006,1.47E-10,,
,2.378006,1.47E-10,,
,2.380006,1.47E-10,,
,2.382006,1.48E-10,,
,2.384006,1.48E-10,,
,2.386006,1.48E-10,,
,2.388006,1.47E-10,,
,2.390006,1.45E-10,,
,2.392006,1.44E-10,,
,2.394006,1.43E-10,,
,2.396006,1.43E-10,,
,2.398006,1.44E-10,,
,2.400006,1.44E-10,,
,2.402006,1.45E-10,,
,2.404006,1.44E-10,,
,2.406006,1.43E-10,,
,2.408006,1.41E-10,,
,2.410006,1.40E-10,,
,2.412006,1.40E-10,,
,2.414006,1.41E-10,,
,2.416006,1.42E-10,,
,2.418006,1.42E-10,,
,2.420006,1.42E-10,,
,2.422006,1.40E-10,,
,2.424006,1.39E-10,,
,2.426006,1.38E-10,,
,2.428006,1.37E-10,,
,2.430006,1.38E-10,,
,2.432006,1.38E-10,,
,2.434006,1.39E-10,,
,2.436006,1.39E-10,,
,2.438006,1.38E-10,,
,2.440006,1.37E-10,,
,2.442006,1.35E-10,,
,2.444006,1.35E-10,,
,2.446006,1.35E-10,,
,2.448006,1.35E-10,,
,2.450006,1.36E-10,,
,2.452006,1.37E-10,,
,2.454006,1.36E-10,,
,2.456006,1.35E-10,,
,2.458006,1.34E-10,,
,2.460006,1.33E-10,,
,2.462006,1.33E-10,,
,2.464006,1.34E-10,,
,2.466006,1.35E-10,,
,2.468006,1.36E-10,,
,2.470006,1.35E-10,,
,2.472006,1.35E-10,,
,2.474006,1.34E-10,,
,2.476006,1.33E-10,,
,2.478006,1.33E-10,,
,2.480006,1.33E-10,,
,2.482006,1.34E-10,,
,2.484006,1.36E-10,,
,2.486006,1.36E-10,,
,2.488006,1.36E-10,,
,2.490006,1.35E-10,,
,2.492006,1.34E-10,,
,2.494006,1.34E-10,,
,2.496006,1.34E-10,,
,2.498006,1.35E-10,,
,2.500006,1.37E-10,,
,2.502006,1.37E-10,,
,2.504006,1.37E-10,,
,2.506006,1.37E-10,,
,2.508006,1.36E-10,,
,2.510006,1.35E-10,,
,2.512006,1.36E-10,,
,2.514006,1.37E-10,,
,2.516006,1.38E-10,,
,2.518006,1.39E-10,,
,2.520006,1.39E-10,,
,2.522006,1.38E-10,,
,2.524006,1.37E-10,,
,2.526006,1.36E-10,,
,2.528006,1.36E-10,,
,2.530006,1.36E-10,,
,2.532006,1.38E-10,,
,2.534006,1.39E-10,,
,2.536006,1.39E-10,,
,2.538006,1.39E-10,,
,2.540006,1.37E-10,,
,2.542006,1.37E-10,,
,2.544006,1.36E-10,,
,2.546006,1.37E-10,,
,2.548006,1.37E-10,,
,2.550006,1.38E-10,,
,2.552006,1.38E-10,,
,2.554006,1.38E-10,,
,2.556006,1.36E-10,,
,2.558006,1.35E-10,,
,2.560006,1.35E-10,,
,2.562006,1.35E-10,,
,2.564006,1.35E-10,,
,2.566006,1.36E-10,,
,2.568006,1.36E-10,,
,2.570006,1.36E-10,,
,2.572006,1.35E-10,,
,2.574006,1.33E-10,,
,2.576006,1.32E-10,,
,2.578006,1.31E-10,,
,2.580006,1.31E-10,,
,2.582006,1.31E-10,,
,2.584006,1.32E-10,,
,2.586006,1.31E-10,,
,2.588006,1.30E-10,,
,2.590006,1.28E-10,,
,2.592006,1.27E-10,,
,2.594006,1.26E-10,,
,2.596006,1.26E-10,,
,2.598006,1.26E-10,,
,2.600006,1.27E-10,,
,2.602006,1.27E-10,,
,2.604006,1.26E-10,,
,2.606006,1.25E-10,,
,2.608006,1.24E-10,,
,2.610006,1.23E-10,,
,2.612006,1.22E-10,,
,2.614006,1.23E-10,,
,2.616006,1.24E-10,,
,2.618006,1.25E-10,,
,2.620006,1.24E-10,,
,2.622006,1.23E-10,,
,2.624006,1.22E-10,,
,2.626006,1.21E-10,,
,2.628006,1.21E-10,,
,2.630006,1.21E-10,,
,2.632006,1.22E-10,,
,2.634006,1.23E-10,,
,2.636006,1.23E-10,,
,2.638006,1.22E-10,,
,2.640006,1.21E-10,,
,2.642006,1.21E-10,,
,2.644006,1.20E-10,,
,2.646006,1.20E-10,,
,2.648006,1.21E-10,,
,2.650006,1.22E-10,,
,2.652006,1.23E-10,,
,2.654006,1.22E-10,,
,2.656006,1.21E-10,,
,2.658006,1.20E-10,,
,2.660006,1.20E-10,,
,2.662006,1.20E-10,,
,2.664006,1.21E-10,,
,2.666006,1.22E-10,,
,2.668006,1.23E-10,,
,2.670006,1.23E-10,,
,2.672006,1.22E-10,,
,2.674006,1.21E-10,,
,2.676006,1.20E-10,,
,2.678006,1.20E-10,,
,2.680006,1.21E-10,,
,2.682006,1.21E-10,,
,2.684006,1.22E-10,,
,2.686006,1.22E-10,,
,2.688006,1.21E-10,,
,2.690006,1.19E-10,,
,2.692006,1.18E-10,,
,2.694006,1.18E-10,,
,2.696006,1.18E-10,,
,2.698006,1.18E-10,,
,2.700006,1.19E-10,,
,2.702006,1.19E-10,,
,2.704006,1.19E-10,,
,2.706006,1.18E-10,,
,2.708006,1.17E-10,,
,2.710006,1.16E-10,,
,2.712006,1.16E-10,,
,2.714006,1.17E-10,,
,2.716006,1.18E-10,,
,2.718006,1.19E-10,,
,2.720006,1.19E-10,,
,2.722006,1.18E-10,,
,2.724006,1.17E-10,,
,2.726006,1.16E-10,,
,2.728006,1.16E-10,,
,2.730006,1.16E-10,,
,2.732006,1.17E-10,,
,2.734006,1.18E-10,,
,2.736006,1.18E-10,,
,2.738006,1.18E-10,,
,2.740006,1.17E-10,,
,2.742006,1.16E-10,,
,2.744006,1.15E-10,,
,2.746006,1.16E-10,,
,2.748006,1.17E-10,,
,2.750006,1.17E-10,,
,2.752006,1.17E-10,,
,2.754006,1.17E-10,,
,2.756006,1.15E-10,,
,2.758006,1.14E-10,,
,2.760006,1.13E-10,,
,2.762006,1.13E-10,,
,2.764006,1.13E-10,,
,2.766006,1.14E-10,,
,2.768006,1.14E-10,,
,2.770006,1.14E-10,,
,2.772006,1.13E-10,,
,2.774006,1.11E-10,,
,2.776006,1.10E-10,,
,2.778006,1.09E-10,,
,2.780006,1.09E-10,,
,2.782006,1.10E-10,,
,2.784006,1.11E-10,,
,2.786006,1.11E-10,,
,2.788006,1.10E-10,,
,2.790006,1.08E-10,,
,2.792006,1.07E-10,,
,2.794006,1.06E-10,,
,2.796006,1.06E-10,,
,2.798006,1.06E-10,,
,2.800006,1.07E-10,,
,2.802006,1.07E-10,,
,2.804006,1.06E-10,,
,2.806006,1.04E-10,,
,2.808006,1.02E-10,,
,2.810006,1.02E-10,,
,2.812006,1.02E-10,,
,2.814006,1.02E-10,,
,2.816006,1.02E-10,,
,2.818006,1.02E-10,,
,2.820006,1.02E-10,,
,2.822006,1.00E-10,,
,2.824006,9.84E-11,,
,2.826006,9.68E-11,,
,2.828006,9.60E-11,,
,2.830006,9.57E-11,,
,2.832006,9.58E-11,,
,2.834006,9.58E-11,,
,2.836006,9.54E-11,,
,2.838006,9.42E-11,,
,2.840006,9.28E-11,,
,2.842006,9.12E-11,,
,2.844006,9.05E-11,,
,2.846006,9.00E-11,,
,2.848006,9.02E-11,,
,2.850006,9.02E-11,,
,2.852006,8.98E-11,,
,2.854006,8.88E-11,,
,2.856006,8.69E-11,,
,2.858006,8.51E-11,,
,2.860006,8.36E-11,,
,2.862006,8.33E-11,,
,2.864006,8.34E-11,,
,2.866006,8.40E-11,,
,2.868006,8.44E-11,,
,2.870006,8.37E-11,,
,2.872006,8.22E-11,,
,2.874006,8.02E-11,,
,2.876006,7.89E-11,,
,2.878006,7.83E-11,,
,2.880006,7.86E-11,,
,2.882006,7.90E-11,,
,2.884006,7.92E-11,,
,2.886006,7.87E-11,,
,2.888006,7.75E-11,,
,2.890006,7.59E-11,,
,2.892006,7.43E-11,,
,2.894006,7.34E-11,,
,2.896006,7.31E-11,,
,2.898006,7.36E-11,,
,2.900006,7.39E-11,,
,2.902006,7.38E-11,,
,2.904006,7.31E-11,,
,2.906006,7.16E-11,,
,2.908006,7.02E-11,,
,2.910006,6.91E-11,,
,2.912006,6.89E-11,,
,2.914006,6.92E-11,,
,2.916006,6.96E-11,,
,2.918006,6.99E-11,,
,2.920006,6.94E-11,,
,2.922006,6.84E-11,,
,2.924006,6.70E-11,,
,2.926006,6.59E-11,,
,2.928006,6.55E-11,,
,2.930006,6.57E-11,,
,2.932006,6.61E-11,,
,2.934006,6.64E-11,,
,2.936006,6.60E-11,,
,2.938006,6.51E-11,,
,2.940006,6.39E-11,,
,2.942006,6.27E-11,,
,2.944006,6.19E-11,,
,2.946006,6.20E-11,,
,2.948006,6.29E-11,,
,2.950006,6.36E-11,,
,2.952006,6.35E-11,,
,2.954006,6.25E-11,,
,2.956006,6.10E-11,,
,2.958006,5.94E-11,,
,2.960006,5.86E-11,,
,2.962006,5.86E-11,,
,2.964006,5.94E-11,,
,2.966006,6.05E-11,,
,2.968006,6.10E-11,,
,2.970006,6.04E-11,,
,2.972006,5.93E-11,,
,2.974006,5.82E-11,,
,2.976006,5.72E-11,,
,2.978006,5.70E-11,,
,2.980006,5.74E-11,,
,2.982006,5.87E-11,,
,2.984006,5.94E-11,,
,2.986006,5.94E-11,,
,2.988006,5.85E-11,,
,2.990006,5.71E-11,,
,2.992006,5.59E-11,,
,2.994006,5.55E-11,,
,2.996006,5.57E-11,,
,2.998006,5.64E-11,,
,3.000006,5.73E-11,,
,3.002006,5.77E-11,,
,3.004006,5.73E-11,,
,3.006006,5.59E-11,,
,3.008006,5.45E-11,,
,3.010006,5.38E-11,,
,3.012006,5.37E-11,,
,3.014006,5.42E-11,,
,3.016006,5.47E-11,,
,3.018006,5.50E-11,,
,3.020006,5.47E-11,,
,3.022006,5.38E-11,,
,3.024006,5.26E-11,,
,3.026006,5.15E-11,,
,3.028006,5.12E-11,,
,3.030006,5.15E-11,,
,3.032006,5.20E-11,,
,3.034006,5.27E-11,,
,3.036006,5.27E-11,,
,3.038006,5.21E-11,,
,3.040006,5.09E-11,,
,3.042006,4.97E-11,,
,3.044006,4.89E-11,,
,3.046006,4.91E-11,,
,3.048006,4.99E-11,,
,3.050006,5.08E-11,,
,3.052006,5.10E-11,,
,3.054006,5.02E-11,,
,3.056006,4.90E-11,,
,3.058006,4.77E-11,,
,3.060006,4.71E-11,,
,3.062006,4.70E-11,,
,3.064006,4.74E-11,,
,3.066006,4.80E-11,,
,3.068006,4.84E-11,,
,3.070006,4.81E-11,,
,3.072006,4.70E-11,,
,3.074006,4.57E-11,,
,3.076006,4.48E-11,,
,3.078006,4.47E-11,,
,3.080006,4.52E-11,,
,3.082006,4.60E-11,,
,3.084006,4.69E-11,,
,3.086006,4.68E-11,,
,3.088006,4.59E-11,,
,3.090006,4.45E-11,,
,3.092006,4.38E-11,,
,3.094006,4.32E-11,,
,3.096006,4.37E-11,,
,3.098006,4.45E-11,,
,3.100006,4.54E-11,,
,3.102006,4.55E-11,,
,3.104006,4.48E-11,,
,3.106006,4.36E-11,,
,3.108006,4.24E-11,,
,3.110006,4.16E-11,,
,3.112006,4.18E-11,,
,3.114006,4.28E-11,,
,3.116006,4.37E-11,,
,3.118006,4.43E-11,,
,3.120006,4.41E-11,,
,3.122006,4.33E-11,,
,3.124006,4.23E-11,,
,3.126006,4.15E-11,,
,3.128006,4.14E-11,,
,3.130006,4.21E-11,,
,3.132006,4.30E-11,,
,3.134006,4.41E-11,,
,3.136006,4.44E-11,,
,3.138006,4.38E-11,,
,3.140006,4.29E-11,,
,3.142006,4.24E-11,,
,3.144006,4.25E-11,,
,3.146006,4.29E-11,,
,3.148006,4.38E-11,,
,3.150006,4.48E-11,,
,3.152006,4.53E-11,,
,3.154006,4.51E-11,,
,3.156006,4.42E-11,,
,3.158006,4.35E-11,,
,3.160006,4.30E-11,,
,3.162006,4.33E-11,,
,3.164006,4.45E-11,,
,3.166006,4.60E-11,,
,3.168006,4.72E-11,,
,3.170006,4.73E-11,,
,3.172006,4.66E-11,,
,3.174006,4.56E-11,,
,3.176006,4.53E-11,,
,3.178006,4.57E-11,,
,3.180006,4.68E-11,,
,3.182006,4.81E-11,,
,3.184006,4.93E-11,,
,3.186006,4.98E-11,,
,3.188006,4.91E-11,,
,3.190006,4.85E-11,,
,3.192006,4.77E-11,,
,3.194006,4.80E-11,,
,3.196006,4.82E-11,,
,3.198006,4.91E-11,,
,3.200006,5.01E-11,,
,3.202006,5.08E-11,,
,3.204006,5.05E-11,,
,3.206006,4.97E-11,,
,3.208006,4.87E-11,,
,3.210006,4.82E-11,,
,3.212006,4.86E-11,,
,3.214006,4.99E-11,,
,3.216006,5.14E-11,,
,3.218006,5.25E-11,,
,3.220006,5.25E-11,,
,3.222006,5.18E-11,,
,3.224006,5.08E-11,,
,3.226006,5.03E-11,,
,3.228006,5.04E-11,,
,3.230006,5.13E-11,,
,3.232006,5.23E-11,,
,3.234006,5.33E-11,,
,3.236006,5.38E-11,,
,3.238006,5.35E-11,,
,3.240006,5.28E-11,,
,3.242006,5.25E-11,,
,3.244006,5.26E-11,,
,3.246006,5.32E-11,,
,3.248006,5.44E-11,,
,3.250006,5.56E-11,,
,3.252006,5.61E-11,,
,3.254006,5.57E-11,,
,3.256006,5.47E-11,,
,3.258006,5.40E-11,,
,3.260006,5.35E-11,,
,3.262006,5.40E-11,,
,3.264006,5.48E-11,,
,3.266006,5.58E-11,,
,3.268006,5.64E-11,,
,3.270006,5.63E-11,,
,3.272006,5.56E-11,,
,3.274006,5.42E-11,,
,3.276006,5.34E-11,,
,3.278006,5.35E-11,,
,3.280006,5.45E-11,,
,3.282006,5.55E-11,,
,3.284006,5.60E-11,,
,3.286006,5.61E-11,,
,3.288006,5.56E-11,,
,3.290006,5.47E-11,,
,3.292006,5.40E-11,,
,3.294006,5.39E-11,,
,3.296006,5.44E-11,,
,3.298006,5.54E-11,,
,3.300006,5.62E-11,,
,3.302006,5.66E-11,,
,3.304006,5.62E-11,,
,3.306006,5.55E-11,,
,3.308006,5.47E-11,,
,3.310006,5.44E-11,,
,3.312006,5.47E-11,,
,3.314006,5.56E-11,,
,3.316006,5.64E-11,,
,3.318006,5.70E-11,,
,3.320006,5.70E-11,,
,3.322006,5.67E-11,,
,3.324006,5.58E-11,,
,3.326006,5.54E-11,,
,3.328006,5.52E-11,,
,3.330006,5.58E-11,,
,3.332006,5.68E-11,,
,3.334006,5.78E-11,,
,3.336006,5.85E-11,,
,3.338006,5.78E-11,,
,3.340006,5.67E-11,,
,3.342006,5.57E-11,,
,3.344006,5.57E-11,,
,3.346006,5.64E-11,,
,3.348006,5.75E-11,,
,3.350006,5.86E-11,,
,3.352006,5.91E-11,,
,3.354006,5.89E-11,,
,3.356006,5.78E-11,,
,3.358006,5.69E-11,,
,3.360006,5.62E-11,,
,3.362006,5.67E-11,,
,3.364006,5.76E-11,,
,3.366006,5.89E-11,,
,3.368006,6.00E-11,,
,3.370006,6.01E-11,,
,3.372006,5.93E-11,,
,3.374006,5.85E-11,,
,3.376006,5.79E-11,,
,3.378006,5.82E-11,,
,3.380006,5.89E-11,,
,3.382006,6.01E-11,,
,3.384006,6.12E-11,,
,3.386006,6.15E-11,,
,3.388006,6.10E-11,,
,3.390006,6.00E-11,,
,3.392006,5.90E-11,,
,3.394006,5.88E-11,,
,3.396006,5.91E-11,,
,3.398006,6.00E-11,,
,3.400006,6.07E-11,,
,3.402006,6.14E-11,,
,3.404006,6.11E-11,,
,3.406006,6.03E-11,,
,3.408006,5.90E-11,,
,3.410006,5.85E-11,,
,3.412006,5.88E-11,,
,3.414006,5.98E-11,,
,3.416006,6.07E-11,,
,3.418006,6.13E-11,,
,3.420006,6.10E-11,,
,3.422006,6.01E-11,,
,3.424006,5.88E-11,,
,3.426006,5.81E-11,,
,3.428006,5.78E-11,,
,3.430006,5.82E-11,,
,3.432006,5.86E-11,,
,3.434006,5.91E-11,,
,3.436006,5.91E-11,,
,3.438006,5.85E-11,,
,3.440006,5.72E-11,,
,3.442006,5.60E-11,,
,3.444006,5.55E-11,,
,3.446006,5.56E-11,,
,3.448006,5.63E-11,,
,3.450006,5.71E-11,,
,3.452006,5.71E-11,,
,3.454006,5.63E-11,,
,3.456006,5.49E-11,,
,3.458006,5.39E-11,,
,3.460006,5.30E-11,,
,3.462006,5.28E-11,,
,3.464006,5.29E-11,,
,3.466006,5.34E-11,,
,3.468006,5.38E-11,,
,3.470006,5.34E-11,,
,3.472006,5.21E-11,,
,3.474006,5.10E-11,,
,3.476006,5.02E-11,,
,3.478006,5.01E-11,,
,3.480006,5.03E-11,,
,3.482006,5.06E-11,,
,3.484006,5.11E-11,,
,3.486006,5.08E-11,,
,3.488006,4.98E-11,,
,3.490006,4.83E-11,,
,3.492006,4.70E-11,,
,3.494006,4.65E-11,,
,3.496006,4.66E-11,,
,3.498006,4.71E-11,,
,3.500006,4.75E-11,,
,3.502006,4.72E-11,,
,3.504006,4.64E-11,,
,3.506006,4.50E-11,,
,3.508006,4.39E-11,,
,3.510006,4.31E-11,,
,3.512006,4.28E-11,,
,3.514006,4.30E-11,,
,3.516006,4.32E-11,,
,3.518006,4.33E-11,,
,3.520006,4.28E-11,,
,3.522006,4.18E-11,,
,3.524006,4.04E-11,,
,3.526006,3.93E-11,,
,3.528006,3.87E-11,,
,3.530006,3.87E-11,,
,3.532006,3.92E-11,,
,3.534006,3.94E-11,,
,3.536006,3.89E-11,,
,3.538006,3.78E-11,,
,3.540006,3.60E-11,,
,3.542006,3.48E-11,,
,3.544006,3.40E-11,,
,3.546006,3.41E-11,,
,3.548006,3.48E-11,,
,3.550006,3.52E-11,,
,3.552006,3.52E-11,,
,3.554006,3.43E-11,,
,3.556006,3.28E-11,,
,3.558006,3.12E-11,,
,3.560006,3.01E-11,,
,3.562006,2.99E-11,,
,3.564006,3.05E-11,,
,3.566006,3.10E-11,,
,3.568006,3.13E-11,,
,3.570006,3.09E-11,,
,3.572006,3.00E-11,,
,3.574006,2.87E-11,,
,3.576006,2.77E-11,,
,3.578006,2.71E-11,,
,3.580006,2.75E-11,,
,3.582006,2.80E-11,,
,3.584006,2.85E-11,,
,3.586006,2.82E-11,,
,3.588006,2.70E-11,,
,3.590006,2.54E-11,,
,3.592006,2.40E-11,,
,3.594006,2.35E-11,,
,3.596006,2.34E-11,,
,3.598006,2.39E-11,,
,3.600006,2.42E-11,,
,3.602006,2.43E-11,,
,3.604006,2.34E-11,,
,3.606006,2.20E-11,,
,3.608006,2.03E-11,,
,3.610006,1.94E-11,,
,3.612006,1.92E-11,,
,3.614006,1.96E-11,,
,3.616006,2.01E-11,,
,3.618006,2.03E-11,,
,3.620006,1.98E-11,,
,3.622006,1.85E-11,,
,3.624006,1.70E-11,,
,3.626006,1.60E-11,,
,3.628006,1.55E-11,,
,3.630006,1.59E-11,,
,3.632006,1.65E-11,,
,3.634006,1.72E-11,,
,3.636006,1.72E-11,,
,3.638006,1.63E-11,,
,3.640006,1.52E-11,,
,3.642006,1.44E-11,,
,3.644006,1.41E-11,,
,3.646006,1.46E-11,,
,3.648006,1.53E-11,,
,3.650006,1.61E-11,,
,3.652006,1.64E-11,,
,3.654006,1.58E-11,,
,3.656006,1.47E-11,,
,3.658006,1.34E-11,,
,3.660006,1.31E-11,,
,3.662006,1.31E-11,,
,3.664006,1.38E-11,,
,3.666006,1.44E-11,,
,3.668006,1.48E-11,,
,3.670006,1.43E-11,,
,3.672006,1.33E-11,,
,3.674006,1.22E-11,,
,3.676006,1.16E-11,,
,3.678006,1.16E-11,,
,3.680006,1.21E-11,,
,3.682006,1.31E-11,,
,3.684006,1.38E-11,,
,3.686006,1.38E-11,,
,3.688006,1.32E-11,,
,3.690006,1.21E-11,,
,3.692006,1.11E-11,,
,3.694006,1.08E-11,,
,3.696006,1.09E-11,,
,3.698006,1.18E-11,,
,3.700006,1.24E-11,,
,3.702006,1.26E-11,,
,3.704006,1.20E-11,,
,3.706006,1.07E-11,,
,3.708006,9.42E-12,,
,3.710006,8.89E-12,,
,3.712006,9.10E-12,,
,3.714006,9.96E-12,,
,3.716006,1.05E-11,,
,3.718006,1.07E-11,,
,3.720006,1.03E-11,,
,3.722006,9.10E-12,,
,3.724006,7.81E-12,,
,3.726006,6.52E-12,,
,3.728006,5.99E-12,,
,3.730006,5.99E-12,,
,3.732006,6.42E-12,,
,3.734006,6.74E-12,,
,3.736006,6.20E-12,,
,3.738006,5.02E-12,,
,3.740006,3.30E-12,,
,3.742006,1.48E-12,,
,3.744006,2.97E-13,,
,3.746006,1.89E-13,,
,3.748006,7.26E-13,,
,3.750006,9.41E-13,,
,3.752006,2.97E-13,,
,3.754006,-1.10E-12,,
,3.756006,-3.14E-12,,
,3.758006,-5.39E-12,,
,3.760006,-7.00E-12,,
,3.762006,-7.65E-12,,
,3.764006,-7.65E-12,,
,3.766006,-7.54E-12,,
,3.768006,-7.97E-12,,
,3.770006,-9.15E-12,,
,3.772006,-1.13E-11,,
,3.774006,-1.37E-11,,
,3.776006,-1.54E-11,,
,3.778006,-1.63E-11,,
,3.780006,-1.67E-11,,
,3.782006,-1.68E-11,,
,3.784006,-1.69E-11,,
,3.786006,-1.78E-11,,
,3.788006,-1.97E-11,,
,3.790006,-2.19E-11,,
,3.792006,-2.34E-11,,
,3.794006,-2.45E-11,,
,3.796006,-2.48E-11,,
,3.798006,-2.49E-11,,
,3.800006,-2.46E-11,,
,3.802006,-2.48E-11,,
,3.804006,-2.57E-11,,
,3.806006,-2.72E-11,,
,3.808006,-2.87E-11,,
,3.810006,-2.93E-11,,
,3.812006,-2.93E-11,,
,3.814006,-2.87E-11,,
,3.816006,-2.83E-11,,
,3.818006,-2.82E-11,,
,3.820006,-2.88E-11,,
,3.822006,-2.99E-11,,
,3.824006,-3.13E-11,,
,3.826006,-3.20E-11,,
,3.828006,-3.22E-11,,
,3.830006,-3.15E-11,,
,3.832006,-3.07E-11,,
,3.834006,-3.02E-11,,
,3.836006,-3.03E-11,,
,3.838006,-3.09E-11,,
,3.840006,-3.16E-11,,
,3.842006,-3.22E-11,,
,3.844006,-3.22E-11,,
,3.846006,-3.16E-11,,
,3.848006,-3.05E-11,,
,3.850006,-2.95E-11,,
,3.852006,-2.90E-11,,
,3.854006,-2.90E-11,,
,3.856006,-2.94E-11,,
,3.858006,-3.04E-11,,
,3.860006,-3.07E-11,,
,3.862006,-3.05E-11,,
,3.864006,-2.95E-11,,
,3.866006,-2.84E-11,,
,3.868006,-2.75E-11,,
,3.870006,-2.76E-11,,
,3.872006,-2.86E-11,,
,3.874006,-2.97E-11,,
,3.876006,-3.01E-11,,
,3.878006,-2.99E-11,,
,3.880006,-2.87E-11,,
,3.882006,-2.74E-11,,
,3.884006,-2.64E-11,,
,3.886006,-2.65E-11,,
,3.888006,-2.73E-11,,
,3.890006,-2.85E-11,,
,3.892006,-2.94E-11,,
,3.894006,-2.98E-11,,
,3.896006,-2.94E-11,,
,3.898006,-2.83E-11,,
,3.900006,-2.73E-11,,
,3.902006,-2.65E-11,,
,3.904006,-2.71E-11,,
,3.906006,-2.78E-11,,
,3.908006,-2.87E-11,,
,3.910006,-2.87E-11,,
,3.912006,-2.82E-11,,
,3.914006,-2.71E-11,,
,3.916006,-2.60E-11,,
,3.918006,-2.53E-11,,
,3.920006,-2.53E-11,,
,3.922006,-2.59E-11,,
,3.924006,-2.69E-11,,
,3.926006,-2.75E-11,,
,3.928006,-2.76E-11,,
,3.930006,-2.70E-11,,
,3.932006,-2.58E-11,,
,3.934006,-2.45E-11,,
,3.936006,-2.41E-11,,
,3.938006,-2.43E-11,,
,3.940006,-2.49E-11,,
,3.942006,-2.56E-11,,
,3.944006,-2.58E-11,,
,3.946006,-2.55E-11,,
,3.948006,-2.42E-11,,
,3.950006,-2.29E-11,,
,3.952006,-2.21E-11,,
,3.954006,-2.25E-11,,
,3.956006,-2.35E-11,,
,3.958006,-2.47E-11,,
,3.960006,-2.51E-11,,
,3.962006,-2.49E-11,,
,3.964006,-2.42E-11,,
,3.966006,-2.33E-11,,
,3.968006,-2.28E-11,,
,3.970006,-2.29E-11,,
,3.972006,-2.38E-11,,
,3.974006,-2.46E-11,,
,3.976006,-2.50E-11,,
,3.978006,-2.50E-11,,
,3.980006,-2.44E-11,,
,3.982006,-2.35E-11,,
,3.984006,-2.28E-11,,
,3.986006,-2.29E-11,,
,3.988006,-2.39E-11,,
,3.990006,-2.51E-11,,
,3.992006,-2.62E-11,,
,3.994006,-2.66E-11,,
,3.996006,-2.62E-11,,
,3.998006,-2.54E-11,,
,4.000006,-2.46E-11,,
,4.002006,-2.43E-11,,
,4.004006,-2.48E-11,,
,4.006006,-2.57E-11,,
,4.008006,-2.66E-11,,
,4.010006,-2.71E-11,,
,4.012006,-2.70E-11,,
,4.014006,-2.62E-11,,
,4.016006,-2.54E-11,,
,4.018006,-2.48E-11,,
,4.020006,-2.50E-11,,
,4.022006,-2.61E-11,,
,4.024006,-2.71E-11,,
,4.026006,-2.80E-11,,
,4.028006,-2.83E-11,,
,4.030006,-2.80E-11,,
,4.032006,-2.74E-11,,
,4.034006,-2.66E-11,,
,4.036006,-2.69E-11,,
,4.038006,-2.78E-11,,
,4.040006,-2.91E-11,,
,4.042006,-2.99E-11,,
,4.044006,-3.01E-11,,
,4.046006,-2.95E-11,,
,4.048006,-2.87E-11,,
,4.050006,-2.78E-11,,
,4.052006,-2.77E-11,,
,4.054006,-2.86E-11,,
,4.056006,-2.99E-11,,
,4.058006,-3.12E-11,,
,4.060006,-3.17E-11,,
,4.062006,-3.18E-11,,
,4.064006,-3.12E-11,,
,4.066006,-3.06E-11,,
,4.068006,-3.02E-11,,
,4.070006,-3.06E-11,,
,4.072006,-3.16E-11,,
,4.074006,-3.27E-11,,
,4.076006,-3.36E-11,,
,4.078006,-3.38E-11,,
,4.080006,-3.33E-11,,
,4.082006,-3.24E-11,,
,4.084006,-3.17E-11,,
,4.086006,-3.19E-11,,
,4.088006,-3.28E-11,,
,4.090006,-3.42E-11,,
,4.092006,-3.52E-11,,
,4.094006,-3.57E-11,,
,4.096006,-3.55E-11,,
,4.098006,-3.48E-11,,
,4.100006,-3.42E-11,,
,4.102006,-3.39E-11,,
,4.104006,-3.45E-11,,
,4.106006,-3.57E-11,,
,4.108006,-3.67E-11,,
,4.110006,-3.73E-11,,
,4.112006,-3.71E-11,,
,4.114006,-3.62E-11,,
,4.116006,-3.51E-11,,
,4.118006,-3.46E-11,,
,4.120006,-3.51E-11,,
,4.122006,-3.63E-11,,
,4.124006,-3.76E-11,,
,4.126006,-3.82E-11,,
,4.128006,-3.86E-11,,
,4.130006,-3.81E-11,,
,4.132006,-3.76E-11,,
,4.134006,-3.72E-11,,
,4.136006,-3.74E-11,,
,4.138006,-3.82E-11,,
,4.140006,-3.95E-11,,
,4.142006,-4.06E-11,,
,4.144006,-4.10E-11,,
,4.146006,-4.05E-11,,
,4.148006,-3.95E-11,,
,4.150006,-3.87E-11,,
,4.152006,-3.85E-11,,
,4.154006,-3.92E-11,,
,4.156006,-4.05E-11,,
,4.158006,-4.18E-11,,
,4.160006,-4.25E-11,,
,4.162006,-4.25E-11,,
,4.164006,-4.19E-11,,
,4.166006,-4.10E-11,,
,4.168006,-4.04E-11,,
,4.170006,-4.07E-11,,
,4.172006,-4.16E-11,,
,4.174006,-4.28E-11,,
,4.176006,-4.36E-11,,
,4.178006,-4.37E-11,,
,4.180006,-4.32E-11,,
,4.182006,-4.19E-11,,
,4.184006,-4.09E-11,,
,4.186006,-4.07E-11,,
,4.188006,-4.15E-11,,
,4.190006,-4.25E-11,,
,4.192006,-4.33E-11,,
,4.194006,-4.35E-11,,
,4.196006,-4.32E-11,,
,4.198006,-4.24E-11,,
,4.200006,-4.18E-11,,
,4.202006,-4.14E-11,,
,4.204006,-4.21E-11,,
,4.206006,-4.34E-11,,
,4.208006,-4.48E-11,,
,4.210006,-4.54E-11,,
,4.212006,-4.52E-11,,
,4.214006,-4.46E-11,,
,4.216006,-4.38E-11,,
,4.218006,-4.34E-11,,
,4.220006,-4.37E-11,,
,4.222006,-4.48E-11,,
,4.224006,-4.60E-11,,
,4.226006,-4.67E-11,,
,4.228006,-4.68E-11,,
,4.230006,-4.63E-11,,
,4.232006,-4.54E-11,,
,4.234006,-4.47E-11,,
,4.236006,-4.46E-11,,
,4.238006,-4.53E-11,,
,4.240006,-4.62E-11,,
,4.242006,-4.69E-11,,
,4.244006,-4.69E-11,,
,4.246006,-4.64E-11,,
,4.248006,-4.55E-11,,
,4.250006,-4.47E-11,,
,4.252006,-4.43E-11,,
,4.254006,-4.49E-11,,
,4.256006,-4.62E-11,,
,4.258006,-4.76E-11,,
,4.260006,-4.81E-11,,
,4.262006,-4.78E-11,,
,4.264006,-4.72E-11,,
,4.266006,-4.66E-11,,
,4.268006,-4.64E-11,,
,4.270006,-4.68E-11,,
,4.272006,-4.78E-11,,
,4.274006,-4.90E-11,,
,4.276006,-4.97E-11,,
,4.278006,-4.96E-11,,
,4.280006,-4.91E-11,,
,4.282006,-4.82E-11,,
,4.284006,-4.76E-11,,
,4.286006,-4.77E-11,,
,4.288006,-4.86E-11,,
,4.290006,-5.01E-11,,
,4.292006,-5.09E-11,,
,4.294006,-5.10E-11,,
,4.296006,-5.07E-11,,
,4.298006,-5.02E-11,,
,4.300006,-4.97E-11,,
,4.302006,-4.93E-11,,
,4.304006,-4.96E-11,,
,4.306006,-5.05E-11,,
,4.308006,-5.12E-11,,
,4.310006,-5.17E-11,,
,4.312006,-5.12E-11,,
,4.314006,-5.02E-11,,
,4.316006,-4.88E-11,,
,4.318006,-4.79E-11,,
,4.320006,-4.82E-11,,
,4.322006,-4.93E-11,,
,4.324006,-5.04E-11,,
,4.326006,-5.09E-11,,
,4.328006,-5.07E-11,,
,4.330006,-5.02E-11,,
,4.332006,-4.92E-11,,
,4.334006,-4.83E-11,,
,4.336006,-4.80E-11,,
,4.338006,-4.82E-11,,
,4.340006,-4.90E-11,,
,4.342006,-4.94E-11,,
,4.344006,-4.93E-11,,
,4.346006,-4.86E-11,,
,4.348006,-4.73E-11,,
,4.350006,-4.64E-11,,
,4.352006,-4.59E-11,,
,4.354006,-4.63E-11,,
,4.356006,-4.70E-11,,
,4.358006,-4.80E-11,,
,4.360006,-4.84E-11,,
,4.362006,-4.80E-11,,
,4.364006,-4.70E-11,,
,4.366006,-4.58E-11,,
,4.368006,-4.50E-11,,
,4.370006,-4.49E-11,,
,4.372006,-4.57E-11,,
,4.374006,-4.65E-11,,
,4.376006,-4.67E-11,,
,4.378006,-4.63E-11,,
,4.380006,-4.52E-11,,
,4.382006,-4.43E-11,,
,4.384006,-4.33E-11,,
,4.386006,-4.30E-11,,
,4.388006,-4.34E-11,,
,4.390006,-4.45E-11,,
,4.392006,-4.54E-11,,
,4.394006,-4.55E-11,,
,4.396006,-4.50E-11,,
,4.398006,-4.38E-11,,
,4.400006,-4.29E-11,,
,4.402006,-4.23E-11,,
,4.404006,-4.28E-11,,
,4.406006,-4.36E-11,,
,4.408006,-4.41E-11,,
,4.410006,-4.43E-11,,
,4.412006,-4.36E-11,,
,4.414006,-4.25E-11,,
,4.416006,-4.14E-11,,
,4.418006,-4.04E-11,,
,4.420006,-4.02E-11,,
,4.422006,-4.07E-11,,
,4.424006,-4.18E-11,,
,4.426006,-4.25E-11,,
,4.428006,-4.24E-11,,
,4.430006,-4.16E-11,,
,4.432006,-4.03E-11,,
,4.434006,-3.91E-11,,
,4.436006,-3.87E-11,,
,4.438006,-3.91E-11,,
,4.440006,-4.00E-11,,
,4.442006,-4.04E-11,,
,4.444006,-4.03E-11,,
,4.446006,-3.94E-11,,
,4.448006,-3.81E-11,,
,4.450006,-3.68E-11,,
,4.452006,-3.63E-11,,
,4.454006,-3.67E-11,,
,4.456006,-3.77E-11,,
,4.458006,-3.85E-11,,
,4.460006,-3.88E-11,,
,4.462006,-3.85E-11,,
,4.464006,-3.76E-11,,
,4.466006,-3.65E-11,,
,4.468006,-3.59E-11,,
,4.470006,-3.62E-11,,
,4.472006,-3.72E-11,,
,4.474006,-3.80E-11,,
,4.476006,-3.85E-11,,
,4.478006,-3.80E-11,,
,4.480006,-3.70E-11,,
,4.482006,-3.56E-11,,
,4.484006,-3.45E-11,,
,4.486006,-3.44E-11,,
,4.488006,-3.50E-11,,
,4.490006,-3.61E-11,,
,4.492006,-3.68E-11,,
,4.494006,-3.70E-11,,
,4.496006,-3.64E-11,,
,4.498006,-3.53E-11,,
,4.500006,-3.44E-11,,
,4.502006,-3.38E-11,,
,4.504006,-3.44E-11,,
,4.506006,-3.53E-11,,
,4.508006,-3.62E-11,,
,4.510006,-3.63E-11,,
,4.512006,-3.57E-11,,
,4.514006,-3.47E-11,,
,4.516006,-3.34E-11,,
,4.518006,-3.29E-11,,
,4.520006,-3.30E-11,,
,4.522006,-3.41E-11,,
,4.524006,-3.51E-11,,
,4.526006,-3.58E-11,,
,4.528006,-3.57E-11,,
,4.530006,-3.49E-11,,
,4.532006,-3.39E-11,,
,4.534006,-3.31E-11,,
,4.536006,-3.28E-11,,
,4.538006,-3.32E-11,,
,4.540006,-3.41E-11,,
,4.542006,-3.47E-11,,
,4.544006,-3.48E-11,,
,4.546006,-3.39E-11,,
,4.548006,-3.26E-11,,
,4.550006,-3.11E-11,,
,4.552006,-3.05E-11,,
,4.554006,-3.06E-11,,
,4.556006,-3.14E-11,,
,4.558006,-3.22E-11,,
,4.560006,-3.26E-11,,
,4.562006,-3.20E-11,,
,4.564006,-3.07E-11,,
,4.566006,-2.95E-11,,
,4.568006,-2.90E-11,,
,4.570006,-2.91E-11,,
,4.572006,-2.98E-11,,
,4.574006,-3.05E-11,,
,4.576006,-3.08E-11,,
,4.578006,-3.06E-11,,
,4.580006,-2.98E-11,,
,4.582006,-2.84E-11,,
,4.584006,-2.74E-11,,
,4.586006,-2.68E-11,,
,4.588006,-2.75E-11,,
,4.590006,-2.84E-11,,
,4.592006,-2.94E-11,,
,4.594006,-2.94E-11,,
,4.596006,-2.89E-11,,
,4.598006,-2.78E-11,,
,4.600006,-2.70E-11,,
,4.602006,-2.66E-11,,
,4.604006,-2.71E-11,,
,4.606006,-2.82E-11,,
,4.608006,-2.91E-11,,
,4.610006,-2.94E-11,,
,4.612006,-2.89E-11,,
,4.614006,-2.77E-11,,
,4.616006,-2.66E-11,,
,4.618006,-2.62E-11,,
,4.620006,-2.66E-11,,
,4.622006,-2.78E-11,,
,4.624006,-2.90E-11,,
,4.626006,-2.98E-11,,
,4.628006,-2.99E-11,,
,4.630006,-2.94E-11,,
,4.632006,-2.88E-11,,
,4.634006,-2.83E-11,,
,4.636006,-2.82E-11,,
,4.638006,-2.88E-11,,
,4.640006,-2.98E-11,,
,4.642006,-3.07E-11,,
,4.644006,-3.12E-11,,
,4.646006,-3.06E-11,,
,4.648006,-2.98E-11,,
,4.650006,-2.90E-11,,
,4.652006,-2.89E-11,,
,4.654006,-2.92E-11,,
,4.656006,-3.03E-11,,
,4.658006,-3.13E-11,,
,4.660006,-3.21E-11,,
,4.662006,-3.18E-11,,
,4.664006,-3.14E-11,,
,4.666006,-3.03E-11,,
,4.668006,-3.00E-11,,
,4.670006,-3.02E-11,,
,4.672006,-3.17E-11,,
,4.674006,-3.30E-11,,
,4.676006,-3.39E-11,,
,4.678006,-3.37E-11,,
,4.680006,-3.31E-11,,
,4.682006,-3.19E-11,,
,4.684006,-3.13E-11,,
,4.686006,-3.16E-11,,
,4.688006,-3.26E-11,,
,4.690006,-3.38E-11,,
,4.692006,-3.46E-11,,
,4.694006,-3.49E-11,,
,4.696006,-3.44E-11,,
,4.698006,-3.34E-11,,
,4.700006,-3.27E-11,,
,4.702006,-3.26E-11,,
,4.704006,-3.33E-11,,
,4.706006,-3.44E-11,,
,4.708006,-3.55E-11,,
,4.710006,-3.59E-11,,
,4.712006,-3.55E-11,,
,4.714006,-3.45E-11,,
,4.716006,-3.35E-11,,
,4.718006,-3.31E-11,,
,4.720006,-3.34E-11,,
,4.722006,-3.44E-11,,
,4.724006,-3.57E-11,,
,4.726006,-3.66E-11,,
,4.728006,-3.64E-11,,
,4.730006,-3.58E-11,,
,4.732006,-3.49E-11,,
,4.734006,-3.45E-11,,
,4.736006,-3.45E-11,,
,4.738006,-3.52E-11,,
,4.740006,-3.65E-11,,
,4.742006,-3.77E-11,,
,4.744006,-3.79E-11,,
,4.746006,-3.75E-11,,
,4.748006,-3.64E-11,,
,4.750006,-3.57E-11,,
,4.752006,-3.55E-11,,
,4.754006,-3.62E-11,,
,4.756006,-3.75E-11,,
,4.758006,-3.89E-11,,
,4.760006,-3.95E-11,,
,4.762006,-3.93E-11,,
,4.764006,-3.84E-11,,
,4.766006,-3.75E-11,,
,4.768006,-3.72E-11,,
,4.770006,-3.78E-11,,
,4.772006,-3.92E-11,,
,4.774006,-4.05E-11,,
,4.776006,-4.13E-11,,
,4.778006,-4.09E-11,,
,4.780006,-4.02E-11,,
,4.782006,-3.91E-11,,
,4.784006,-3.86E-11,,
,4.786006,-3.87E-11,,
,4.788006,-3.96E-11,,
,4.790006,-4.09E-11,,
,4.792006,-4.20E-11,,
,4.794006,-4.24E-11,,
,4.796006,-4.19E-11,,
,4.798006,-4.09E-11,,
,4.800006,-3.99E-11,,
,4.802006,-3.95E-11,,
,4.804006,-4.01E-11,,
,4.806006,-4.09E-11,,
,4.808006,-4.18E-11,,
,4.810006,-4.21E-11,,
,4.812006,-4.19E-11,,
,4.814006,-4.11E-11,,
,4.816006,-4.01E-11,,
,4.818006,-3.97E-11,,
,4.820006,-4.01E-11,,
,4.822006,-4.13E-11,,
,4.824006,-4.23E-11,,
,4.826006,-4.31E-11,,
,4.828006,-4.30E-11,,
,4.830006,-4.21E-11,,
,4.832006,-4.09E-11,,
,4.834006,-4.03E-11,,
,4.836006,-4.04E-11,,
,4.838006,-4.13E-11,,
,4.840006,-4.22E-11,,
,4.842006,-4.30E-11,,
,4.844006,-4.30E-11,,
,4.846006,-4.21E-11,,
,4.848006,-4.09E-11,,
,4.850006,-4.01E-11,,
,4.852006,-4.01E-11,,
,4.854006,-4.09E-11,,
,4.856006,-4.21E-11,,
,4.858006,-4.32E-11,,
,4.860006,-4.38E-11,,
,4.862006,-4.38E-11,,
,4.864006,-4.33E-11,,
,4.866006,-4.24E-11,,
,4.868006,-4.19E-11,,
,4.870006,-4.22E-11,,
,4.872006,-4.31E-11,,
,4.874006,-4.40E-11,,
,4.876006,-4.45E-11,,
,4.878006,-4.43E-11,,
,4.880006,-4.33E-11,,
,4.882006,-4.20E-11,,
,4.884006,-4.10E-11,,
,4.886006,-4.11E-11,,
,4.888006,-4.19E-11,,
,4.890006,-4.31E-11,,
,4.892006,-4.36E-11,,
,4.894006,-4.37E-11,,
,4.896006,-4.31E-11,,
,4.898006,-4.22E-11,,
,4.900006,-4.15E-11,,
,4.902006,-4.11E-11,,
,4.904006,-4.18E-11,,
,4.906006,-4.29E-11,,
,4.908006,-4.38E-11,,
,4.910006,-4.40E-11,,
,4.912006,-4.34E-11,,
,4.914006,-4.23E-11,,
,4.916006,-4.10E-11,,
,4.918006,-4.05E-11,,
,4.920006,-4.09E-11,,
,4.922006,-4.21E-11,,
,4.924006,-4.31E-11,,
,4.926006,-4.35E-11,,
,4.928006,-4.33E-11,,
,4.930006,-4.28E-11,,
,4.932006,-4.18E-11,,
,4.934006,-4.10E-11,,
,4.936006,-4.07E-11,,
,4.938006,-4.14E-11,,
,4.940006,-4.22E-11,,
,4.942006,-4.31E-11,,
,4.944006,-4.30E-11,,
,4.946006,-4.23E-11,,
,4.948006,-4.13E-11,,
,4.950006,-4.03E-11,,
,4.952006,-4.01E-11,,
,4.954006,-4.04E-11,,
,4.956006,-4.15E-11,,
,4.958006,-4.24E-11,,
,4.960006,-4.29E-11,,
,4.962006,-4.23E-11,,
,4.964006,-4.15E-11,,
,4.966006,-4.05E-11,,
,4.968006,-4.02E-11,,
,4.970006,-4.04E-11,,
,4.972006,-4.14E-11,,
,4.974006,-4.23E-11,,
,4.976006,-4.30E-11,,
,4.978006,-4.29E-11,,
,4.980006,-4.20E-11,,
,4.982006,-4.07E-11,,
,4.984006,-3.99E-11,,
,4.986006,-3.99E-11,,
,4.988006,-4.07E-11,,
,4.990006,-4.17E-11,,
,4.992006,-4.22E-11,,
,4.994006,-4.20E-11,,
,4.996006,-4.13E-11,,
,4.998006,-4.03E-11,,
,5.000006,-3.94E-11,,
,5.002006,-3.90E-11,,
,5.004006,-3.96E-11,,
,5.006006,-4.07E-11,,
,5.008006,-4.18E-11,,
,5.010006,-4.18E-11,,
,5.012006,-4.13E-11,,
,5.014006,-4.02E-11,,
,5.016006,-3.92E-11,,
,5.018006,-3.84E-11,,
,5.020006,-3.81E-11,,
,5.022006,-3.86E-11,,
,5.024006,-3.93E-11,,
,5.026006,-3.99E-11,,
,5.028006,-3.96E-11,,
,5.030006,-3.89E-11,,
,5.032006,-3.78E-11,,
,5.034006,-3.72E-11,,
,5.036006,-3.70E-11,,
,5.038006,-3.75E-11,,
,5.040006,-3.85E-11,,
,5.042006,-3.91E-11,,
,5.044006,-3.90E-11,,
,5.046006,-3.79E-11,,
,5.048006,-3.66E-11,,
,5.050006,-3.55E-11,,
,5.052006,-3.48E-11,,
,5.054006,-3.53E-11,,
,5.056006,-3.62E-11,,
,5.058006,-3.74E-11,,
,5.060006,-3.76E-11,,
,5.062006,-3.75E-11,,
,5.064006,-3.64E-11,,
,5.066006,-3.52E-11,,
,5.068006,-3.45E-11,,
,5.070006,-3.46E-11,,
,5.072006,-3.53E-11,,
,5.074006,-3.62E-11,,
,5.076006,-3.66E-11,,
,5.078006,-3.63E-11,,
,5.080006,-3.52E-11,,
,5.082006,-3.43E-11,,
,5.084006,-3.33E-11,,
,5.086006,-3.33E-11,,
,5.088006,-3.36E-11,,
,5.090006,-3.47E-11,,
,5.092006,-3.51E-11,,
,5.094006,-3.51E-11,,
,5.096006,-3.45E-11,,
,5.098006,-3.35E-11,,
,5.100006,-3.23E-11,,
,5.102006,-3.16E-11,,
,5.104006,-3.18E-11,,
,5.106006,-3.28E-11,,
,5.108006,-3.35E-11,,
,5.110006,-3.35E-11,,
,5.112006,-3.27E-11,,
,5.114006,-3.15E-11,,
,5.116006,-3.02E-11,,
,5.118006,-2.94E-11,,
,5.120006,-2.95E-11,,
,5.122006,-3.04E-11,,
,5.124006,-3.14E-11,,
,5.126006,-3.22E-11,,
,5.128006,-3.20E-11,,
,5.130006,-3.16E-11,,
,5.132006,-3.05E-11,,
,5.134006,-3.03E-11,,
,5.136006,-3.05E-11,,
,5.138006,-3.16E-11,,
,5.140006,-3.29E-11,,
,5.142006,-3.38E-11,,
,5.144006,-3.38E-11,,
,5.146006,-3.32E-11,,
,5.148006,-3.21E-11,,
,5.150006,-3.13E-11,,
,5.152006,-3.08E-11,,
,5.154006,-3.14E-11,,
,5.156006,-3.23E-11,,
,5.158006,-3.34E-11,,
,5.160006,-3.39E-11,,
,5.162006,-3.38E-11,,
,5.164006,-3.33E-11,,
,5.166006,-3.22E-11,,
,5.168006,-3.19E-11,,
,5.170006,-3.22E-11,,
,5.172006,-3.34E-11,,
,5.174006,-3.45E-11,,
,5.176006,-3.47E-11,,
,5.178006,-3.44E-11,,
,5.180006,-3.35E-11,,
,5.182006,-3.24E-11,,
,5.184006,-3.15E-11,,
,5.186006,-3.11E-11,,
,5.188006,-3.17E-11,,
,5.190006,-3.28E-11,,
,5.192006,-3.37E-11,,
,5.194006,-3.39E-11,,
,5.196006,-3.35E-11,,
,5.198006,-3.26E-11,,
,5.200006,-3.17E-11,,
,5.202006,-3.16E-11,,
,5.204006,-3.22E-11,,
,5.206006,-3.34E-11,,
,5.208006,-3.44E-11,,
,5.210006,-3.50E-11,,
,5.212006,-3.48E-11,,
,5.214006,-3.41E-11,,
,5.216006,-3.31E-11,,
,5.218006,-3.28E-11,,
,5.220006,-3.32E-11,,
,5.222006,-3.44E-11,,
,5.224006,-3.57E-11,,
,5.226006,-3.67E-11,,
,5.228006,-3.71E-11,,
,5.230006,-3.67E-11,,
,5.232006,-3.61E-11,,
,5.234006,-3.57E-11,,
,5.236006,-3.62E-11,,
,5.238006,-3.73E-11,,
,5.240006,-3.89E-11,,
,5.242006,-3.97E-11,,
,5.244006,-4.01E-11,,
,5.246006,-3.95E-11,,
,5.248006,-3.86E-11,,
,5.250006,-3.77E-11,,
,5.252006,-3.74E-11,,
,5.254006,-3.81E-11,,
,5.256006,-3.95E-11,,
,5.258006,-4.07E-11,,
,5.260006,-4.14E-11,,
,5.262006,-4.10E-11,,
,5.264006,-4.05E-11,,
,5.266006,-3.97E-11,,
,5.268006,-3.93E-11,,
,5.270006,-3.93E-11,,
,5.272006,-4.02E-11,,
,5.274006,-4.11E-11,,
,5.276006,-4.19E-11,,
,5.278006,-4.17E-11,,
,5.280006,-4.10E-11,,
,5.282006,-4.00E-11,,
,5.284006,-3.93E-11,,
,5.286006,-3.89E-11,,
,5.288006,-3.96E-11,,
,5.290006,-4.06E-11,,
,5.292006,-4.17E-11,,
,5.294006,-4.17E-11,,
,5.296006,-4.09E-11,,
,5.298006,-3.97E-11,,
,5.300006,-3.89E-11,,
,5.302006,-3.89E-11,,
,5.304006,-3.96E-11,,
,5.306006,-4.07E-11,,
,5.308006,-4.16E-11,,
,5.310006,-4.18E-11,,
,5.312006,-4.13E-11,,
,5.314006,-4.01E-11,,
,5.316006,-3.90E-11,,
,5.318006,-3.82E-11,,
,5.320006,-3.86E-11,,
,5.322006,-3.92E-11,,
,5.324006,-4.03E-11,,
,5.326006,-4.07E-11,,
,5.328006,-4.06E-11,,
,5.330006,-3.95E-11,,
,5.332006,-3.84E-11,,
,5.334006,-3.73E-11,,
,5.336006,-3.72E-11,,
,5.338006,-3.76E-11,,
,5.340006,-3.87E-11,,
,5.342006,-3.95E-11,,
,5.344006,-3.96E-11,,
,5.346006,-3.90E-11,,
,5.348006,-3.79E-11,,
,5.350006,-3.71E-11,,
,5.352006,-3.68E-11,,
,5.354006,-3.73E-11,,
,5.356006,-3.82E-11,,
,5.358006,-3.91E-11,,
,5.360006,-3.95E-11,,
,5.362006,-3.91E-11,,
,5.364006,-3.85E-11,,
,5.366006,-3.76E-11,,
,5.368006,-3.72E-11,,
,5.370006,-3.73E-11,,
,5.372006,-3.82E-11,,
,5.374006,-3.94E-11,,
,5.376006,-4.02E-11,,
,5.378006,-3.96E-11,,
,5.380006,-3.87E-11,,
,5.382006,-3.75E-11,,
,5.384006,-3.70E-11,,
,5.386006,-3.70E-11,,
,5.388006,-3.78E-11,,
,5.390006,-3.89E-11,,
,5.392006,-3.99E-11,,
,5.394006,-4.00E-11,,
,5.396006,-3.96E-11,,
,5.398006,-3.87E-11,,
,5.400006,-3.79E-11,,
,5.402006,-3.76E-11,,
,5.404006,-3.82E-11,,
,5.406006,-3.93E-11,,
,5.408006,-4.05E-11,,
,5.410006,-4.11E-11,,
,5.412006,-4.07E-11,,
,5.414006,-3.97E-11,,
,5.416006,-3.86E-11,,
,5.418006,-3.82E-11,,
,5.420006,-3.87E-11,,
,5.422006,-3.97E-11,,
,5.424006,-4.07E-11,,
,5.426006,-4.13E-11,,
,5.428006,-4.11E-11,,
,5.430006,-4.06E-11,,
,5.432006,-4.01E-11,,
,5.434006,-3.95E-11,,
,5.436006,-3.97E-11,,
,5.438006,-4.03E-11,,
,5.440006,-4.16E-11,,
,5.442006,-4.23E-11,,
,5.444006,-4.26E-11,,
,5.446006,-4.19E-11,,
,5.448006,-4.10E-11,,
,5.450006,-4.02E-11,,
,5.452006,-4.00E-11,,
,5.454006,-4.06E-11,,
,5.456006,-4.17E-11,,
,5.458006,-4.29E-11,,
,5.460006,-4.31E-11,,
,5.462006,-4.30E-11,,
,5.464006,-4.23E-11,,
,5.466006,-4.17E-11,,
,5.468006,-4.11E-11,,
,5.470006,-4.14E-11,,
,5.472006,-4.23E-11,,
,5.474006,-4.33E-11,,
,5.476006,-4.39E-11,,
,5.478006,-4.37E-11,,
,5.480006,-4.31E-11,,
,5.482006,-4.19E-11,,
,5.484006,-4.13E-11,,
,5.486006,-4.13E-11,,
,5.488006,-4.21E-11,,
,5.490006,-4.34E-11,,
,5.492006,-4.43E-11,,
,5.494006,-4.45E-11,,
,5.496006,-4.40E-11,,
,5.498006,-4.33E-11,,
,5.500006,-4.26E-11,,
,5.502006,-4.24E-11,,
,5.504006,-4.30E-11,,
,5.506006,-4.40E-11,,
,5.508006,-4.48E-11,,
,5.510006,-4.50E-11,,
,5.512006,-4.44E-11,,
,5.514006,-4.32E-11,,
,5.516006,-4.20E-11,,
,5.518006,-4.11E-11,,
,5.520006,-4.14E-11,,
,5.522006,-4.22E-11,,
,5.524006,-4.35E-11,,
,5.526006,-4.41E-11,,
,5.528006,-4.39E-11,,
,5.530006,-4.31E-11,,
,5.532006,-4.21E-11,,
,5.534006,-4.15E-11,,
,5.536006,-4.15E-11,,
,5.538006,-4.20E-11,,
,5.540006,-4.31E-11,,
,5.542006,-4.38E-11,,
,5.544006,-4.39E-11,,
,5.546006,-4.31E-11,,
,5.548006,-4.17E-11,,
,5.550006,-4.05E-11,,
,5.552006,-4.00E-11,,
,5.554006,-4.05E-11,,
,5.556006,-4.17E-11,,
,5.558006,-4.25E-11,,
,5.560006,-4.29E-11,,
,5.562006,-4.20E-11,,
,5.564006,-4.11E-11,,
,5.566006,-4.02E-11,,
,5.568006,-3.97E-11,,
,5.570006,-4.01E-11,,
,5.572006,-4.07E-11,,
,5.574006,-4.19E-11,,
,5.576006,-4.23E-11,,
,5.578006,-4.20E-11,,
,5.580006,-4.08E-11,,
,5.582006,-3.94E-11,,
,5.584006,-3.86E-11,,
,5.586006,-3.85E-11,,
,5.588006,-3.92E-11,,
,5.590006,-4.04E-11,,
,5.592006,-4.11E-11,,
,5.594006,-4.13E-11,,
,5.596006,-4.05E-11,,
,5.598006,-3.96E-11,,
,5.600006,-3.87E-11,,
,5.602006,-3.85E-11,,
,5.604006,-3.90E-11,,
,5.606006,-4.00E-11,,
,5.608006,-4.08E-11,,
,5.610006,-4.09E-11,,
,5.612006,-4.05E-11,,
,5.614006,-3.93E-11,,
,5.616006,-3.84E-11,,
,5.618006,-3.77E-11,,
,5.620006,-3.80E-11,,
,5.622006,-3.88E-11,,
,5.624006,-3.99E-11,,
,5.626006,-4.06E-11,,
,5.628006,-4.07E-11,,
,5.630006,-4.02E-11,,
,5.632006,-3.92E-11,,
,5.634006,-3.87E-11,,
,5.636006,-3.89E-11,,
,5.638006,-4.01E-11,,
,5.640006,-4.11E-11,,
,5.642006,-4.18E-11,,
,5.644006,-4.17E-11,,
,5.646006,-4.08E-11,,
,5.648006,-3.99E-11,,
,5.650006,-3.86E-11,,
,5.652006,-3.82E-11,,
,5.654006,-3.85E-11,,
,5.656006,-3.99E-11,,
,5.658006,-4.08E-11,,
,5.660006,-4.16E-11,,
,5.662006,-4.13E-11,,
,5.664006,-4.04E-11,,
,5.666006,-3.95E-11,,
,5.668006,-3.90E-11,,
,5.670006,-3.94E-11,,
,5.672006,-4.04E-11,,
,5.674006,-4.15E-11,,
,5.676006,-4.24E-11,,
,5.678006,-4.23E-11,,
,5.680006,-4.18E-11,,
,5.682006,-4.08E-11,,
,5.684006,-4.03E-11,,
,5.686006,-4.03E-11,,
,5.688006,-4.09E-11,,
,5.690006,-4.18E-11,,
,5.692006,-4.26E-11,,
,5.694006,-4.26E-11,,
,5.696006,-4.21E-11,,
,5.698006,-4.09E-11,,
,5.700006,-4.03E-11,,
,5.702006,-4.01E-11,,
,5.704006,-4.07E-11,,
,5.706006,-4.17E-11,,
,5.708006,-4.26E-11,,
,5.710006,-4.28E-11,,
,5.712006,-4.20E-11,,
,5.714006,-4.08E-11,,
,5.716006,-4.00E-11,,
,5.718006,-3.94E-11,,
,5.720006,-3.95E-11,,
,5.722006,-4.02E-11,,
,5.724006,-4.10E-11,,
,5.726006,-4.17E-11,,
,5.728006,-4.17E-11,,
,5.730006,-4.11E-11,,
,5.732006,-4.04E-11,,
,5.734006,-3.97E-11,,
,5.736006,-4.02E-11,,
,5.738006,-4.11E-11,,
,5.740006,-4.24E-11,,
,5.742006,-4.32E-11,,
,5.744006,-4.33E-11,,
,5.746006,-4.28E-11,,
,5.748006,-4.17E-11,,
,5.750006,-4.07E-11,,
,5.752006,-4.04E-11,,
,5.754006,-4.10E-11,,
,5.756006,-4.23E-11,,
,5.758006,-4.33E-11,,
,5.760006,-4.37E-11,,
,5.762006,-4.35E-11,,
,5.764006,-4.32E-11,,
,5.766006,-4.25E-11,,
,5.768006,-4.22E-11,,
,5.770006,-4.25E-11,,
,5.772006,-4.37E-11,,
,5.774006,-4.48E-11,,
,5.776006,-4.55E-11,,
,5.778006,-4.54E-11,,
,5.780006,-4.47E-11,,
,5.782006,-4.36E-11,,
,5.784006,-4.30E-11,,
,5.786006,-4.33E-11,,
,5.788006,-4.40E-11,,
,5.790006,-4.51E-11,,
,5.792006,-4.59E-11,,
,5.794006,-4.64E-11,,
,5.796006,-4.61E-11,,
,5.798006,-4.52E-11,,
,5.800006,-4.45E-11,,
,5.802006,-4.43E-11,,
,5.804006,-4.51E-11,,
,5.806006,-4.63E-11,,
,5.808006,-4.75E-11,,
,5.810006,-4.76E-11,,
,5.812006,-4.70E-11,,
,5.814006,-4.60E-11,,
,5.816006,-4.51E-11,,
,5.818006,-4.44E-11,,
,5.820006,-4.47E-11,,
,5.822006,-4.54E-11,,
,5.824006,-4.63E-11,,
,5.826006,-4.68E-11,,
,5.828006,-4.67E-11,,
,5.830006,-4.63E-11,,
,5.832006,-4.52E-11,,
,5.834006,-4.44E-11,,
,5.836006,-4.43E-11,,
,5.838006,-4.51E-11,,
,5.840006,-4.64E-11,,
,5.842006,-4.74E-11,,
,5.844006,-4.73E-11,,
,5.846006,-4.66E-11,,
,5.848006,-4.54E-11,,
,5.850006,-4.45E-11,,
,5.852006,-4.41E-11,,
,5.854006,-4.47E-11,,
,5.856006,-4.59E-11,,
,5.858006,-4.67E-11,,
,5.860006,-4.69E-11,,
,5.862006,-4.65E-11,,
,5.864006,-4.57E-11,,
,5.866006,-4.47E-11,,
,5.868006,-4.41E-11,,
,5.870006,-4.46E-11,,
,5.872006,-4.58E-11,,
,5.874006,-4.69E-11,,
,5.876006,-4.74E-11,,
,5.878006,-4.68E-11,,
,5.880006,-4.58E-11,,
,5.882006,-4.45E-11,,
,5.884006,-4.37E-11,,
,5.886006,-4.36E-11,,
,5.888006,-4.43E-11,,
,5.890006,-4.52E-11,,
,5.892006,-4.60E-11,,
,5.894006,-4.61E-11,,
,5.896006,-4.57E-11,,
,5.898006,-4.46E-11,,
,5.900006,-4.37E-11,,
,5.902006,-4.32E-11,,
,5.904006,-4.37E-11,,
,5.906006,-4.48E-11,,
,5.908006,-4.59E-11,,
,5.910006,-4.62E-11,,
,5.912006,-4.57E-11,,
,5.914006,-4.46E-11,,
,5.916006,-4.35E-11,,
,5.918006,-4.30E-11,,
,5.920006,-4.32E-11,,
,5.922006,-4.40E-11,,
,5.924006,-4.49E-11,,
,5.926006,-4.55E-11,,
,5.928006,-4.54E-11,,
,5.930006,-4.48E-11,,
,5.932006,-4.37E-11,,
,5.934006,-4.30E-11,,
,5.936006,-4.31E-11,,
,5.938006,-4.40E-11,,
,5.940006,-4.53E-11,,
,5.942006,-4.62E-11,,
,5.944006,-4.62E-11,,
,5.946006,-4.55E-11,,
,5.948006,-4.45E-11,,
,5.950006,-4.38E-11,,
,5.952006,-4.37E-11,,
,5.954006,-4.46E-11,,
,5.956006,-4.58E-11,,
,5.958006,-4.69E-11,,
,5.960006,-4.75E-11,,
,5.962006,-4.74E-11,,
,5.964006,-4.68E-11,,
,5.966006,-4.61E-11,,
,5.968006,-4.60E-11,,
,5.970006,-4.66E-11,,
,5.972006,-4.81E-11,,
,5.974006,-4.93E-11,,
,5.976006,-4.97E-11,,
,5.978006,-4.95E-11,,
,5.980006,-4.86E-11,,
,5.982006,-4.76E-11,,
,5.984006,-4.68E-11,,
,5.986006,-4.70E-11,,
,5.988006,-4.81E-11,,
,5.990006,-4.93E-11,,
,5.992006,-5.03E-11,,
,5.994006,-5.04E-11,,
,5.996006,-4.99E-11,,
,5.998006,-4.92E-11,,
,6.000006,-4.88E-11,,
,6.002006,-4.88E-11,,
,6.004006,-4.96E-11,,
,6.006006,-5.07E-11,,
,6.008006,-5.17E-11,,
,6.010006,-5.18E-11,,
,6.012006,-5.12E-11,,
,6.014006,-5.02E-11,,
,6.016006,-4.93E-11,,
,6.018006,-4.88E-11,,
,6.020006,-4.92E-11,,
,6.022006,-4.99E-11,,
,6.024006,-5.10E-11,,
,6.026006,-5.14E-11,,
,6.028006,-5.14E-11,,
,6.030006,-5.09E-11,,
,6.032006,-5.03E-11,,
,6.034006,-4.97E-11,,
,6.036006,-4.98E-11,,
,6.038006,-5.09E-11,,
,6.040006,-5.23E-11,,
,6.042006,-5.33E-11,,
,6.044006,-5.33E-11,,
,6.046006,-5.24E-11,,
,6.048006,-5.12E-11,,
,6.050006,-5.01E-11,,
,6.052006,-4.97E-11,,
,6.054006,-4.99E-11,,
,6.056006,-5.10E-11,,
,6.058006,-5.14E-11,,
,6.060006,-5.17E-11,,
,6.062006,-5.12E-11,,
,6.064006,-5.07E-11,,
,6.066006,-5.01E-11,,
,6.068006,-4.97E-11,,
,6.070006,-5.03E-11,,
,6.072006,-5.13E-11,,
,6.074006,-5.22E-11,,
,6.076006,-5.26E-11,,
,6.078006,-5.23E-11,,
,6.080006,-5.16E-11,,
,6.082006,-5.05E-11,,
,6.084006,-4.98E-11,,
,6.086006,-4.99E-11,,
,6.088006,-5.08E-11,,
,6.090006,-5.17E-11,,
,6.092006,-5.23E-11,,
,6.094006,-5.23E-11,,
,6.096006,-5.19E-11,,
,6.098006,-5.10E-11,,
,6.100006,-5.03E-11,,
,6.102006,-5.01E-11,,
,6.104006,-5.07E-11,,
,6.106006,-5.20E-11,,
,6.108006,-5.32E-11,,
,6.110006,-5.38E-11,,
,6.112006,-5.36E-11,,
,6.114006,-5.27E-11,,
,6.116006,-5.16E-11,,
,6.118006,-5.09E-11,,
,6.120006,-5.17E-11,,
,6.122006,-5.31E-11,,
,6.124006,-5.45E-11,,
,6.126006,-5.50E-11,,
,6.128006,-5.53E-11,,
,6.130006,-5.52E-11,,
,6.132006,-5.49E-11,,
,6.134006,-5.47E-11,,
,6.136006,-5.51E-11,,
,6.138006,-5.62E-11,,
,6.140006,-5.76E-11,,
,6.142006,-5.86E-11,,
,6.144006,-5.93E-11,,
,6.146006,-5.90E-11,,
,6.148006,-5.83E-11,,
,6.150006,-5.79E-11,,
,6.152006,-5.83E-11,,
,6.154006,-5.97E-11,,
,6.156006,-6.13E-11,,
,6.158006,-6.27E-11,,
,6.160006,-6.34E-11,,
,6.162006,-6.35E-11,,
,6.164006,-6.30E-11,,
,6.166006,-6.27E-11,,
,6.168006,-6.28E-11,,
,6.170006,-6.39E-11,,
,6.172006,-6.54E-11,,
,6.174006,-6.70E-11,,
,6.176006,-6.80E-11,,
,6.178006,-6.84E-11,,
,6.180006,-6.81E-11,,
,6.182006,-6.78E-11,,
,6.184006,-6.76E-11,,
,6.186006,-6.82E-11,,
,6.188006,-6.95E-11,,
,6.190006,-7.10E-11,,
,6.192006,-7.23E-11,,
,6.194006,-7.30E-11,,
,6.196006,-7.32E-11,,
,6.198006,-7.29E-11,,
,6.200006,-7.25E-11,,
,6.202006,-7.28E-11,,
,6.204006,-7.39E-11,,
,6.206006,-7.54E-11,,
,6.208006,-7.69E-11,,
,6.210006,-7.76E-11,,
,6.212006,-7.75E-11,,
,6.214006,-7.69E-11,,
,6.216006,-7.65E-11,,
,6.218006,-7.66E-11,,
,6.220006,-7.72E-11,,
,6.222006,-7.83E-11,,
,6.224006,-7.94E-11,,
,6.226006,-8.02E-11,,
,6.228006,-8.05E-11,,
,6.230006,-8.03E-11,,
,6.232006,-7.95E-11,,
,6.234006,-7.87E-11,,
,6.236006,-7.88E-11,,
,6.238006,-7.99E-11,,
,6.240006,-8.12E-11,,
,6.242006,-8.19E-11,,
,6.244006,-8.20E-11,,
,6.246006,-8.14E-11,,
,6.248006,-8.04E-11,,
,6.250006,-7.97E-11,,
,6.252006,-7.96E-11,,
,6.254006,-8.05E-11,,
,6.256006,-8.14E-11,,
,6.258006,-8.24E-11,,
,6.260006,-8.26E-11,,
,6.262006,-8.25E-11,,
,6.264006,-8.17E-11,,
,6.266006,-8.10E-11,,
,6.268006,-8.08E-11,,
,6.270006,-8.13E-11,,
,6.272006,-8.25E-11,,
,6.274006,-8.33E-11,,
,6.276006,-8.35E-11,,
,6.278006,-8.31E-11,,
,6.280006,-8.23E-11,,
,6.282006,-8.14E-11,,
,6.284006,-8.06E-11,,
,6.286006,-8.08E-11,,
,6.288006,-8.16E-11,,
,6.290006,-8.28E-11,,
,6.292006,-8.33E-11,,
,6.294006,-8.32E-11,,
,6.296006,-8.22E-11,,
,6.298006,-8.10E-11,,
,6.300006,-8.00E-11,,
,6.302006,-8.00E-11,,
,6.304006,-8.06E-11,,
,6.306006,-8.16E-11,,
,6.308006,-8.22E-11,,
,6.310006,-8.19E-11,,
,6.312006,-8.11E-11,,
,6.314006,-7.98E-11,,
,6.316006,-7.86E-11,,
,6.318006,-7.80E-11,,
,6.320006,-7.82E-11,,
,6.322006,-7.90E-11,,
,6.324006,-7.97E-11,,
,6.326006,-7.99E-11,,
,6.328006,-7.95E-11,,
,6.330006,-7.86E-11,,
,6.332006,-7.76E-11,,
,6.334006,-7.70E-11,,
,6.336006,-7.71E-11,,
,6.338006,-7.76E-11,,
,6.340006,-7.85E-11,,
,6.342006,-7.89E-11,,
,6.344006,-7.90E-11,,
,6.346006,-7.83E-11,,
,6.348006,-7.72E-11,,
,6.350006,-7.61E-11,,
,6.352006,-7.61E-11,,
,6.354006,-7.67E-11,,
,6.356006,-7.75E-11,,
,6.358006,-7.81E-11,,
,6.360006,-7.83E-11,,
,6.362006,-7.79E-11,,
,6.364006,-7.68E-11,,
,6.366006,-7.58E-11,,
,6.368006,-7.56E-11,,
,6.370006,-7.60E-11,,
,6.372006,-7.70E-11,,
,6.374006,-7.78E-11,,
,6.376006,-7.80E-11,,
,6.378006,-7.73E-11,,
,6.380006,-7.61E-11,,
,6.382006,-7.51E-11,,
,6.384006,-7.44E-11,,
,6.386006,-7.44E-11,,
,6.388006,-7.51E-11,,
,6.390006,-7.60E-11,,
,6.392006,-7.68E-11,,
,6.394006,-7.70E-11,,
,6.396006,-7.62E-11,,
,6.398006,-7.53E-11,,
,6.400006,-7.43E-11,,
,6.402006,-7.43E-11,,
,6.404006,-7.51E-11,,
,6.406006,-7.62E-11,,
,6.408006,-7.71E-11,,
,6.410006,-7.72E-11,,
,6.412006,-7.68E-11,,
,6.414006,-7.58E-11,,
,6.416006,-7.51E-11,,
,6.418006,-7.45E-11,,
,6.420006,-7.50E-11,,
,6.422006,-7.59E-11,,
,6.424006,-7.71E-11,,
,6.426006,-7.76E-11,,
,6.428006,-7.78E-11,,
,6.430006,-7.71E-11,,
,6.432006,-7.62E-11,,
,6.434006,-7.54E-11,,
,6.436006,-7.56E-11,,
,6.438006,-7.68E-11,,
,6.440006,-7.82E-11,,
,6.442006,-7.86E-11,,
,6.444006,-7.83E-11,,
,6.446006,-7.71E-11,,
,6.448006,-7.60E-11,,
,6.450006,-7.50E-11,,
,6.452006,-7.44E-11,,
,6.454006,-7.49E-11,,
,6.456006,-7.57E-11,,
,6.458006,-7.67E-11,,
,6.460006,-7.67E-11,,
,6.462006,-7.60E-11,,
,6.464006,-7.52E-11,,
,6.466006,-7.44E-11,,
,6.468006,-7.40E-11,,
,6.470006,-7.42E-11,,
,6.472006,-7.51E-11,,
,6.474006,-7.62E-11,,
,6.476006,-7.67E-11,,
,6.478006,-7.61E-11,,
,6.480006,-7.49E-11,,
,6.482006,-7.35E-11,,
,6.484006,-7.26E-11,,
,6.486006,-7.27E-11,,
,6.488006,-7.35E-11,,
,6.490006,-7.43E-11,,
,6.492006,-7.46E-11,,
,6.494006,-7.43E-11,,
,6.496006,-7.37E-11,,
,6.498006,-7.26E-11,,
,6.500006,-7.21E-11,,
,6.502006,-7.18E-11,,
,6.504006,-7.26E-11,,
,6.506006,-7.36E-11,,
,6.508006,-7.45E-11,,
,6.510006,-7.47E-11,,
,6.512006,-7.42E-11,,
,6.514006,-7.31E-11,,
,6.516006,-7.23E-11,,
,6.518006,-7.21E-11,,
,6.520006,-7.27E-11,,
,6.522006,-7.40E-11,,
,6.524006,-7.51E-11,,
,6.526006,-7.58E-11,,
,6.528006,-7.57E-11,,
,6.530006,-7.52E-11,,
,6.532006,-7.41E-11,,
,6.534006,-7.35E-11,,
,6.536006,-7.35E-11,,
,6.538006,-7.44E-11,,
,6.540006,-7.53E-11,,
,6.542006,-7.59E-11,,
,6.544006,-7.57E-11,,
,6.546006,-7.51E-11,,
,6.548006,-7.39E-11,,
,6.550006,-7.32E-11,,
,6.552006,-7.31E-11,,
,6.554006,-7.39E-11,,
,6.556006,-7.49E-11,,
,6.558006,-7.57E-11,,
,6.560006,-7.59E-11,,
,6.562006,-7.54E-11,,
,6.564006,-7.46E-11,,
,6.566006,-7.37E-11,,
,6.568006,-7.35E-11,,
,6.570006,-7.35E-11,,
,6.572006,-7.45E-11,,
,6.574006,-7.51E-11,,
,6.576006,-7.55E-11,,
,6.578006,-7.49E-11,,
,6.580006,-7.38E-11,,
,6.582006,-7.25E-11,,
,6.584006,-7.17E-11,,
,6.586006,-7.20E-11,,
,6.588006,-7.29E-11,,
,6.590006,-7.41E-11,,
,6.592006,-7.45E-11,,
,6.594006,-7.46E-11,,
,6.596006,-7.39E-11,,
,6.598006,-7.33E-11,,
,6.600006,-7.25E-11,,
,6.602006,-7.26E-11,,
,6.604006,-7.36E-11,,
,6.606006,-7.50E-11,,
,6.608006,-7.61E-11,,
,6.610006,-7.65E-11,,
,6.612006,-7.61E-11,,
,6.614006,-7.54E-11,,
,6.616006,-7.45E-11,,
,6.618006,-7.44E-11,,
,6.620006,-7.49E-11,,
,6.622006,-7.58E-11,,
,6.624006,-7.67E-11,,
,6.626006,-7.71E-11,,
,6.628006,-7.68E-11,,
,6.630006,-7.60E-11,,
,6.632006,-7.51E-11,,
,6.634006,-7.47E-11,,
,6.636006,-7.51E-11,,
,6.638006,-7.60E-11,,
,6.640006,-7.73E-11,,
,6.642006,-7.83E-11,,
,6.644006,-7.84E-11,,
,6.646006,-7.78E-11,,
,6.648006,-7.65E-11,,
,6.650006,-7.59E-11,,
,6.652006,-7.57E-11,,
,6.654006,-7.65E-11,,
,6.656006,-7.75E-11,,
,6.658006,-7.85E-11,,
,6.660006,-7.88E-11,,
,6.662006,-7.85E-11,,
,6.664006,-7.78E-11,,
,6.666006,-7.72E-11,,
,6.668006,-7.70E-11,,
,6.670006,-7.76E-11,,
,6.672006,-7.87E-11,,
,6.674006,-7.98E-11,,
,6.676006,-8.05E-11,,
,6.678006,-8.03E-11,,
,6.680006,-7.96E-11,,
,6.682006,-7.86E-11,,
,6.684006,-7.79E-11,,
,6.686006,-7.81E-11,,
,6.688006,-7.88E-11,,
,6.690006,-8.01E-11,,
,6.692006,-8.04E-11,,
,6.694006,-8.02E-11,,
,6.696006,-7.93E-11,,
,6.698006,-7.83E-11,,
,6.700006,-7.74E-11,,
,6.702006,-7.74E-11,,
,6.704006,-7.83E-11,,
,6.706006,-7.94E-11,,
,6.708006,-8.02E-11,,
,6.710006,-8.01E-11,,
,6.712006,-7.94E-11,,
,6.714006,-7.82E-11,,
,6.716006,-7.73E-11,,
,6.718006,-7.69E-11,,
,6.720006,-7.71E-11,,
,6.722006,-7.79E-11,,
,6.724006,-7.87E-11,,
,6.726006,-7.91E-11,,
,6.728006,-7.85E-11,,
,6.730006,-7.74E-11,,
,6.732006,-7.61E-11,,
,6.734006,-7.55E-11,,
,6.736006,-7.59E-11,,
,6.738006,-7.69E-11,,
,6.740006,-7.82E-11,,
,6.742006,-7.84E-11,,
,6.744006,-7.83E-11,,
,6.746006,-7.76E-11,,
,6.748006,-7.66E-11,,
,6.750006,-7.57E-11,,
,6.752006,-7.54E-11,,
,6.754006,-7.64E-11,,
,6.756006,-7.76E-11,,
,6.758006,-7.84E-11,,
,6.760006,-7.86E-11,,
,6.762006,-7.76E-11,,
,6.764006,-7.68E-11,,
,6.766006,-7.56E-11,,
,6.768006,-7.53E-11,,
,6.770006,-7.55E-11,,
,6.772006,-7.64E-11,,
,6.774006,-7.71E-11,,
,6.776006,-7.71E-11,,
,6.778006,-7.66E-11,,
,6.780006,-7.56E-11,,
,6.782006,-7.45E-11,,
,6.784006,-7.37E-11,,
,6.786006,-7.35E-11,,
,6.788006,-7.41E-11,,
,6.790006,-7.50E-11,,
,6.792006,-7.55E-11,,
,6.794006,-7.54E-11,,
,6.796006,-7.43E-11,,
,6.798006,-7.29E-11,,
,6.800006,-7.20E-11,,
,6.802006,-7.18E-11,,
,6.804006,-7.27E-11,,
,6.806006,-7.36E-11,,
,6.808006,-7.44E-11,,
,6.810006,-7.45E-11,,
,6.812006,-7.39E-11,,
,6.814006,-7.26E-11,,
,6.816006,-7.14E-11,,
,6.818006,-7.10E-11,,
,6.820006,-7.14E-11,,
,6.822006,-7.25E-11,,
,6.824006,-7.35E-11,,
,6.826006,-7.39E-11,,
,6.828006,-7.35E-11,,
,6.830006,-7.24E-11,,
,6.832006,-7.13E-11,,
,6.834006,-7.05E-11,,
,6.836006,-7.05E-11,,
,6.838006,-7.11E-11,,
,6.840006,-7.22E-11,,
,6.842006,-7.30E-11,,
,6.844006,-7.28E-11,,
,6.846006,-7.23E-11,,
,6.848006,-7.12E-11,,
,6.850006,-7.05E-11,,
,6.852006,-7.00E-11,,
,6.854006,-7.06E-11,,
,6.856006,-7.14E-11,,
,6.858006,-7.22E-11,,
,6.860006,-7.23E-11,,
,6.862006,-7.20E-11,,
,6.864006,-7.13E-11,,
,6.866006,-7.05E-11,,
,6.868006,-7.03E-11,,
,6.870006,-7.06E-11,,
,6.872006,-7.14E-11,,
,6.874006,-7.21E-11,,
,6.876006,-7.23E-11,,
,6.878006,-7.18E-11,,
,6.880006,-7.09E-11,,
,6.882006,-6.99E-11,,
,6.884006,-6.93E-11,,
,6.886006,-6.95E-11,,
,6.888006,-7.03E-11,,
,6.890006,-7.14E-11,,
,6.892006,-7.20E-11,,
,6.894006,-7.20E-11,,
,6.896006,-7.13E-11,,
,6.898006,-7.06E-11,,
,6.900006,-6.98E-11,,
,6.902006,-7.00E-11,,
,6.904006,-7.10E-11,,
,6.906006,-7.23E-11,,
,6.908006,-7.30E-11,,
,6.910006,-7.32E-11,,
,6.912006,-7.27E-11,,
,6.914006,-7.18E-11,,
,6.916006,-7.08E-11,,
,6.918006,-7.05E-11,,
,6.920006,-7.09E-11,,
,6.922006,-7.20E-11,,
,6.924006,-7.29E-11,,
,6.926006,-7.33E-11,,
,6.928006,-7.30E-11,,
,6.930006,-7.23E-11,,
,6.932006,-7.11E-11,,
,6.934006,-7.05E-11,,
,6.936006,-7.05E-11,,
,6.938006,-7.16E-11,,
,6.940006,-7.26E-11,,
,6.942006,-7.33E-11,,
,6.944006,-7.31E-11,,
,6.946006,-7.24E-11,,
,6.948006,-7.12E-11,,
,6.950006,-7.03E-11,,
,6.952006,-7.02E-11,,
,6.954006,-7.09E-11,,
,6.956006,-7.17E-11,,
,6.958006,-7.26E-11,,
,6.960006,-7.27E-11,,
,6.962006,-7.22E-11,,
,6.964006,-7.11E-11,,
,6.966006,-7.02E-11,,
,6.968006,-6.99E-11,,
,6.970006,-7.03E-11,,
,6.972006,-7.15E-11,,
,6.974006,-7.24E-11,,
,6.976006,-7.30E-11,,
,6.978006,-7.24E-11,,
,6.980006,-7.15E-11,,
,6.982006,-7.01E-11,,
,6.984006,-6.94E-11,,
,6.986006,-6.94E-11,,
,6.988006,-6.99E-11,,
,6.990006,-7.07E-11,,
,6.992006,-7.12E-11,,
,6.994006,-7.12E-11,,
,6.996006,-7.06E-11,,
,6.998006,-6.94E-11,,
,7.000006,-6.83E-11,,
,7.002006,-6.80E-11,,
,7.004006,-6.85E-11,,
,7.006006,-6.98E-11,,
,7.008006,-7.06E-11,,
,7.010006,-7.06E-11,,
,7.012006,-6.97E-11,,
,7.014006,-6.87E-11,,
,7.016006,-6.81E-11,,
,7.018006,-6.77E-11,,
,7.020006,-6.81E-11,,
,7.022006,-6.89E-11,,
,7.024006,-7.00E-11,,
,7.026006,-7.05E-11,,
,7.028006,-6.99E-11,,
,7.030006,-6.91E-11,,
,7.032006,-6.79E-11,,
,7.034006,-6.73E-11,,
,7.036006,-6.73E-11,,
,7.038006,-6.83E-11,,
,7.040006,-6.91E-11,,
,7.042006,-6.93E-11,,
,7.044006,-6.86E-11,,
,7.046006,-6.78E-11,,
,7.048006,-6.64E-11,,
,7.050006,-6.55E-11,,
,7.052006,-6.51E-11,,
,7.054006,-6.58E-11,,
,7.056006,-6.67E-11,,
,7.058006,-6.74E-11,,
,7.060006,-6.74E-11,,
,7.062006,-6.66E-11,,
,7.064006,-6.55E-11,,
,7.066006,-6.42E-11,,
,7.068006,-6.40E-11,,
,7.070006,-6.43E-11,,
,7.072006,-6.55E-11,,
,7.074006,-6.62E-11,,
,7.076006,-6.63E-11,,
,7.078006,-6.57E-11,,
,7.080006,-6.47E-11,,
,7.082006,-6.35E-11,,
,7.084006,-6.26E-11,,
,7.086006,-6.25E-11,,
,7.088006,-6.29E-11,,
,7.090006,-6.36E-11,,
,7.092006,-6.38E-11,,
,7.094006,-6.37E-11,,
,7.096006,-6.27E-11,,
,7.098006,-6.18E-11,,
,7.100006,-6.07E-11,,
,7.102006,-6.06E-11,,
,7.104006,-6.11E-11,,
,7.106006,-6.23E-11,,
,7.108006,-6.32E-11,,
,7.110006,-6.36E-11,,
,7.112006,-6.30E-11,,
,7.114006,-6.21E-11,,
,7.116006,-6.11E-11,,
,7.118006,-6.08E-11,,
,7.120006,-6.11E-11,,
,7.122006,-6.21E-11,,
,7.124006,-6.29E-11,,
,7.126006,-6.32E-11,,
,7.128006,-6.24E-11,,
,7.130006,-6.13E-11,,
,7.132006,-6.05E-11,,
,7.134006,-6.01E-11,,
,7.136006,-6.06E-11,,
,7.138006,-6.14E-11,,
,7.140006,-6.25E-11,,
,7.142006,-6.30E-11,,
,7.144006,-6.32E-11,,
,7.146006,-6.22E-11,,
,7.148006,-6.11E-11,,
,7.150006,-6.04E-11,,
,7.152006,-6.05E-11,,
,7.154006,-6.09E-11,,
,7.156006,-6.18E-11,,
,7.158006,-6.22E-11,,
,7.160006,-6.23E-11,,
,7.162006,-6.15E-11,,
,7.164006,-6.06E-11,,
,7.166006,-5.95E-11,,
,7.168006,-5.91E-11,,
,7.170006,-5.94E-11,,
,7.172006,-6.07E-11,,
,7.174006,-6.15E-11,,
,7.176006,-6.21E-11,,
,7.178006,-6.18E-11,,
,7.180006,-6.09E-11,,
,7.182006,-6.00E-11,,
,7.184006,-5.93E-11,,
,7.186006,-5.94E-11,,
,7.188006,-6.01E-11,,
,7.190006,-6.12E-11,,
,7.192006,-6.20E-11,,
,7.194006,-6.19E-11,,
,7.196006,-6.11E-11,,
,7.198006,-6.00E-11,,
,7.200006,-5.91E-11,,
,7.202006,-5.90E-11,,
,7.204006,-5.99E-11,,
,7.206006,-6.14E-11,,
,7.208006,-6.23E-11,,
,7.210006,-6.23E-11,,
,7.212006,-6.15E-11,,
,7.214006,-6.03E-11,,
,7.216006,-5.94E-11,,
,7.218006,-5.89E-11,,
,7.220006,-5.95E-11,,
,7.222006,-6.04E-11,,
,7.224006,-6.12E-11,,
,7.226006,-6.14E-11,,
,7.228006,-6.08E-11,,
,7.230006,-5.96E-11,,
,7.232006,-5.85E-11,,
,7.234006,-5.79E-11,,
,7.236006,-5.80E-11,,
,7.238006,-5.87E-11,,
,7.240006,-5.95E-11,,
,7.242006,-6.00E-11,,
,7.244006,-5.98E-11,,
,7.246006,-5.89E-11,,
,7.248006,-5.78E-11,,
,7.250006,-5.67E-11,,
,7.252006,-5.66E-11,,
,7.254006,-5.71E-11,,
,7.256006,-5.82E-11,,
,7.258006,-5.89E-11,,
,7.260006,-5.89E-11,,
,7.262006,-5.82E-11,,
,7.264006,-5.71E-11,,
,7.266006,-5.61E-11,,
,7.268006,-5.55E-11,,
,7.270006,-5.60E-11,,
,7.272006,-5.69E-11,,
,7.274006,-5.78E-11,,
,7.276006,-5.79E-11,,
,7.278006,-5.71E-11,,
,7.280006,-5.61E-11,,
,7.282006,-5.50E-11,,
,7.284006,-5.42E-11,,
,7.286006,-5.41E-11,,
,7.288006,-5.51E-11,,
,7.290006,-5.60E-11,,
,7.292006,-5.65E-11,,
,7.294006,-5.59E-11,,
,7.296006,-5.50E-11,,
,7.298006,-5.34E-11,,
,7.300006,-5.25E-11,,
,7.302006,-5.23E-11,,
,7.304006,-5.32E-11,,
,7.306006,-5.42E-11,,
,7.308006,-5.51E-11,,
,7.310006,-5.53E-11,,
,7.312006,-5.47E-11,,
,7.314006,-5.35E-11,,
,7.316006,-5.24E-11,,
,7.318006,-5.18E-11,,
,7.320006,-5.22E-11,,
,7.322006,-5.28E-11,,
,7.324006,-5.38E-11,,
,7.326006,-5.40E-11,,
,7.328006,-5.38E-11,,
,7.330006,-5.28E-11,,
,7.332006,-5.18E-11,,
,7.334006,-5.12E-11,,
,7.336006,-5.16E-11,,
,7.338006,-5.26E-11,,
,7.340006,-5.37E-11,,
,7.342006,-5.42E-11,,
,7.344006,-5.42E-11,,
,7.346006,-5.37E-11,,
,7.348006,-5.28E-11,,
,7.350006,-5.20E-11,,
,7.352006,-5.18E-11,,
,7.354006,-5.25E-11,,
,7.356006,-5.35E-11,,
,7.358006,-5.41E-11,,
,7.360006,-5.42E-11,,
,7.362006,-5.39E-11,,
,7.364006,-5.32E-11,,
,7.366006,-5.22E-11,,
,7.368006,-5.21E-11,,
,7.370006,-5.28E-11,,
,7.372006,-5.43E-11,,
,7.374006,-5.53E-11,,
,7.376006,-5.55E-11,,
,7.378006,-5.53E-11,,
,7.380006,-5.42E-11,,
,7.382006,-5.33E-11,,
,7.384006,-5.25E-11,,
,7.386006,-5.31E-11,,
,7.388006,-5.43E-11,,
,7.390006,-5.54E-11,,
,7.392006,-5.60E-11,,
,7.394006,-5.59E-11,,
,7.396006,-5.51E-11,,
,7.398006,-5.41E-11,,
,7.400006,-5.33E-11,,
,7.402006,-5.35E-11,,
,7.404006,-5.43E-11,,
,7.406006,-5.60E-11,,
,7.408006,-5.68E-11,,
,7.410006,-5.71E-11,,
,7.412006,-5.64E-11,,
,7.414006,-5.54E-11,,
,7.416006,-5.43E-11,,
,7.418006,-5.39E-11,,
,7.420006,-5.41E-11,,
,7.422006,-5.51E-11,,
,7.424006,-5.59E-11,,
,7.426006,-5.62E-11,,
,7.428006,-5.56E-11,,
,7.430006,-5.47E-11,,
,7.432006,-5.36E-11,,
,7.434006,-5.28E-11,,
,7.436006,-5.31E-11,,
,7.438006,-5.39E-11,,
,7.440006,-5.51E-11,,
,7.442006,-5.57E-11,,
,7.444006,-5.57E-11,,
,7.446006,-5.49E-11,,
,7.448006,-5.38E-11,,
,7.450006,-5.28E-11,,
,7.452006,-5.28E-11,,
,7.454006,-5.32E-11,,
,7.456006,-5.40E-11,,
,7.458006,-5.47E-11,,
,7.460006,-5.46E-11,,
,7.462006,-5.39E-11,,
,7.464006,-5.28E-11,,
,7.466006,-5.22E-11,,
,7.468006,-5.20E-11,,
,7.470006,-5.24E-11,,
,7.472006,-5.34E-11,,
,7.474006,-5.40E-11,,
,7.476006,-5.41E-11,,
,7.478006,-5.33E-11,,
,7.480006,-5.23E-11,,
,7.482006,-5.12E-11,,
,7.484006,-5.07E-11,,
,7.486006,-5.05E-11,,
,7.488006,-5.11E-11,,
,7.490006,-5.19E-11,,
,7.492006,-5.25E-11,,
,7.494006,-5.21E-11,,
,7.496006,-5.12E-11,,
,7.498006,-5.03E-11,,
,7.500006,-4.99E-11,,
,7.502006,-5.02E-11,,
,7.504006,-5.09E-11,,
,7.506006,-5.19E-11,,
,7.508006,-5.27E-11,,
,7.510006,-5.30E-11,,
,7.512006,-5.25E-11,,
,7.514006,-5.16E-11,,
,7.516006,-5.08E-11,,
,7.518006,-5.04E-11,,
,7.520006,-5.09E-11,,
,7.522006,-5.18E-11,,
,7.524006,-5.27E-11,,
,7.526006,-5.31E-11,,
,7.528006,-5.28E-11,,
,7.530006,-5.21E-11,,
,7.532006,-5.14E-11,,
,7.534006,-5.11E-11,,
,7.536006,-5.19E-11,,
,7.538006,-5.33E-11,,
,7.540006,-5.49E-11,,
,7.542006,-5.59E-11,,
,7.544006,-5.56E-11,,
,7.546006,-5.50E-11,,
,7.548006,-5.37E-11,,
,7.550006,-5.32E-11,,
,7.552006,-5.28E-11,,
,7.554006,-5.36E-11,,
,7.556006,-5.46E-11,,
,7.558006,-5.53E-11,,
,7.560006,-5.56E-11,,
,7.562006,-5.49E-11,,
,7.564006,-5.42E-11,,
,7.566006,-5.35E-11,,
,7.568006,-5.37E-11,,
,7.570006,-5.46E-11,,
,7.572006,-5.59E-11,,
,7.574006,-5.71E-11,,
,7.576006,-5.77E-11,,
,7.578006,-5.76E-11,,
,7.580006,-5.68E-11,,
,7.582006,-5.60E-11,,
,7.584006,-5.56E-11,,
,7.586006,-5.60E-11,,
,7.588006,-5.70E-11,,
,7.590006,-5.83E-11,,
,7.592006,-5.90E-11,,
,7.594006,-5.90E-11,,
,7.596006,-5.80E-11,,
,7.598006,-5.71E-11,,
,7.600006,-5.65E-11,,
,7.602006,-5.68E-11,,
,7.604006,-5.77E-11,,
,7.606006,-5.90E-11,,
,7.608006,-5.97E-11,,
,7.610006,-6.00E-11,,
,7.612006,-5.93E-11,,
,7.614006,-5.82E-11,,
,7.616006,-5.69E-11,,
,7.618006,-5.66E-11,,
,7.620006,-5.70E-11,,
,7.622006,-5.81E-11,,
,7.624006,-5.85E-11,,
,7.626006,-5.87E-11,,
,7.628006,-5.82E-11,,
,7.630006,-5.74E-11,,
,7.632006,-5.63E-11,,
,7.634006,-5.55E-11,,
,7.636006,-5.56E-11,,
,7.638006,-5.64E-11,,
,7.640006,-5.74E-11,,
,7.642006,-5.79E-11,,
,7.644006,-5.77E-11,,
,7.646006,-5.67E-11,,
,7.648006,-5.59E-11,,
,7.650006,-5.52E-11,,
,7.652006,-5.52E-11,,
,7.654006,-5.56E-11,,
,7.656006,-5.63E-11,,
,7.658006,-5.70E-11,,
,7.660006,-5.70E-11,,
,7.662006,-5.63E-11,,
,7.664006,-5.52E-11,,
,7.666006,-5.41E-11,,
,7.668006,-5.40E-11,,
,7.670006,-5.47E-11,,
,7.672006,-5.57E-11,,
,7.674006,-5.65E-11,,
,7.676006,-5.66E-11,,
,7.678006,-5.64E-11,,
,7.680006,-5.56E-11,,
,7.682006,-5.47E-11,,
,7.684006,-5.42E-11,,
,7.686006,-5.45E-11,,
,7.688006,-5.55E-11,,
,7.690006,-5.64E-11,,
,7.692006,-5.70E-11,,
,7.694006,-5.69E-11,,
,7.696006,-5.62E-11,,
,7.698006,-5.53E-11,,
,7.700006,-5.46E-11,,
,7.702006,-5.46E-11,,
,7.704006,-5.51E-11,,
,7.706006,-5.63E-11,,
,7.708006,-5.69E-11,,
,7.710006,-5.70E-11,,
,7.712006,-5.60E-11,,
,7.714006,-5.49E-11,,
,7.716006,-5.37E-11,,
,7.718006,-5.35E-11,,
,7.720006,-5.39E-11,,
,7.722006,-5.47E-11,,
,7.724006,-5.53E-11,,
,7.726006,-5.55E-11,,
,7.728006,-5.53E-11,,
,7.730006,-5.41E-11,,
,7.732006,-5.31E-11,,
,7.734006,-5.26E-11,,
,7.736006,-5.33E-11,,
,7.738006,-5.45E-11,,
,7.740006,-5.56E-11,,
,7.742006,-5.65E-11,,
,7.744006,-5.63E-11,,
,7.746006,-5.54E-11,,
,7.748006,-5.41E-11,,
,7.750006,-5.34E-11,,
,7.752006,-5.33E-11,,
,7.754006,-5.40E-11,,
,7.756006,-5.53E-11,,
,7.758006,-5.64E-11,,
,7.760006,-5.66E-11,,
,7.762006,-5.59E-11,,
,7.764006,-5.48E-11,,
,7.766006,-5.40E-11,,
,7.768006,-5.37E-11,,
,7.770006,-5.41E-11,,
,7.772006,-5.52E-11,,
,7.774006,-5.65E-11,,
,7.776006,-5.69E-11,,
,7.778006,-5.66E-11,,
,7.780006,-5.56E-11,,
,7.782006,-5.48E-11,,
,7.784006,-5.41E-11,,
,7.786006,-5.43E-11,,
,7.788006,-5.52E-11,,
,7.790006,-5.61E-11,,
,7.792006,-5.64E-11,,
,7.794006,-5.61E-11,,
,7.796006,-5.53E-11,,
,7.798006,-5.45E-11,,
,7.800006,-5.38E-11,,
,7.802006,-5.38E-11,,
,7.804006,-5.45E-11,,
,7.806006,-5.54E-11,,
,7.808006,-5.61E-11,,
,7.810006,-5.60E-11,,
,7.812006,-5.53E-11,,
,7.814006,-5.42E-11,,
,7.816006,-5.33E-11,,
,7.818006,-5.27E-11,,
,7.820006,-5.32E-11,,
,7.822006,-5.40E-11,,
,7.824006,-5.49E-11,,
,7.826006,-5.51E-11,,
,7.828006,-5.48E-11,,
,7.830006,-5.38E-11,,
,7.832006,-5.32E-11,,
,7.834006,-5.28E-11,,
,7.836006,-5.34E-11,,
,7.838006,-5.45E-11,,
,7.840006,-5.56E-11,,
,7.842006,-5.62E-11,,
,7.844006,-5.60E-11,,
,7.846006,-5.52E-11,,
,7.848006,-5.42E-11,,
,7.850006,-5.35E-11,,
,7.852006,-5.36E-11,,
,7.854006,-5.45E-11,,
,7.856006,-5.55E-11,,
,7.858006,-5.63E-11,,
,7.860006,-5.65E-11,,
,7.862006,-5.60E-11,,
,7.864006,-5.51E-11,,
,7.866006,-5.42E-11,,
,7.868006,-5.43E-11,,
,7.870006,-5.52E-11,,
,7.872006,-5.66E-11,,
,7.874006,-5.76E-11,,
,7.876006,-5.79E-11,,
,7.878006,-5.75E-11,,
,7.880006,-5.65E-11,,
,7.882006,-5.56E-11,,
,7.884006,-5.52E-11,,
,7.886006,-5.55E-11,,
,7.888006,-5.62E-11,,
,7.890006,-5.71E-11,,
,7.892006,-5.76E-11,,
,7.894006,-5.77E-11,,
,7.896006,-5.69E-11,,
,7.898006,-5.61E-11,,
,7.900006,-5.54E-11,,
,7.902006,-5.56E-11,,
,7.904006,-5.65E-11,,
,7.906006,-5.76E-11,,
,7.908006,-5.82E-11,,
,7.910006,-5.84E-11,,
,7.912006,-5.76E-11,,
,7.914006,-5.66E-11,,
,7.916006,-5.56E-11,,
,7.918006,-5.55E-11,,
,7.920006,-5.60E-11,,
,7.922006,-5.68E-11,,
,7.924006,-5.74E-11,,
,7.926006,-5.77E-11,,
,7.928006,-5.71E-11,,
,7.930006,-5.63E-11,,
,7.932006,-5.53E-11,,
,7.934006,-5.48E-11,,
,7.936006,-5.52E-11,,
,7.938006,-5.61E-11,,
,7.940006,-5.71E-11,,
,7.942006,-5.79E-11,,
,7.944006,-5.78E-11,,
,7.946006,-5.71E-11,,
,7.948006,-5.60E-11,,
,7.950006,-5.53E-11,,
,7.952006,-5.52E-11,,
,7.954006,-5.57E-11,,
,7.956006,-5.63E-11,,
,7.958006,-5.69E-11,,
,7.960006,-5.68E-11,,
,7.962006,-5.62E-11,,
,7.964006,-5.49E-11,,
,7.966006,-5.39E-11,,
,7.968006,-5.36E-11,,
,7.970006,-5.41E-11,,
,7.972006,-5.52E-11,,
,7.974006,-5.60E-11,,
,7.976006,-5.62E-11,,
,7.978006,-5.55E-11,,
,7.980006,-5.45E-11,,
,7.982006,-5.33E-11,,
,7.984006,-5.26E-11,,
,7.986006,-5.27E-11,,
,7.988006,-5.35E-11,,
,7.990006,-5.46E-11,,
,7.992006,-5.53E-11,,
,7.994006,-5.51E-11,,
,7.996006,-5.41E-11,,
,7.998006,-5.28E-11,,
,8.000006,-5.24E-11,,
,8.002006,-5.24E-11,,
,8.004006,-5.35E-11,,
,8.006006,-5.46E-11,,
,8.008006,-5.56E-11,,
,8.010006,-5.60E-11,,
,8.012006,-5.55E-11,,
,8.014006,-5.47E-11,,
,8.016006,-5.38E-11,,
,8.018006,-5.37E-11,,
,8.020006,-5.47E-11,,
,8.022006,-5.60E-11,,
,8.024006,-5.70E-11,,
,8.026006,-5.71E-11,,
,8.028006,-5.69E-11,,
,8.030006,-5.62E-11,,
,8.032006,-5.55E-11,,
,8.034006,-5.51E-11,,
,8.036006,-5.59E-11,,
,8.038006,-5.71E-11,,
,8.040006,-5.86E-11,,
,8.042006,-5.96E-11,,
,8.044006,-5.99E-11,,
,8.046006,-5.96E-11,,
,8.048006,-5.90E-11,,
,8.050006,-5.84E-11,,
,8.052006,-5.87E-11,,
,8.054006,-5.98E-11,,
,8.056006,-6.11E-11,,
,8.058006,-6.20E-11,,
,8.060006,-6.20E-11,,
,8.062006,-6.15E-11,,
,8.064006,-6.07E-11,,
,8.066006,-6.03E-11,,
,8.068006,-6.05E-11,,
,8.070006,-6.15E-11,,
,8.072006,-6.30E-11,,
,8.074006,-6.44E-11,,
,8.076006,-6.51E-11,,
,8.078006,-6.52E-11,,
,8.080006,-6.47E-11,,
,8.082006,-6.42E-11,,
,8.084006,-6.40E-11,,
,8.086006,-6.45E-11,,
,8.088006,-6.56E-11,,
,8.090006,-6.67E-11,,
,8.092006,-6.74E-11,,
,8.094006,-6.74E-11,,
,8.096006,-6.66E-11,,
,8.098006,-6.55E-11,,
,8.100006,-6.48E-11,,
,8.102006,-6.50E-11,,
,8.104006,-6.60E-11,,
,8.106006,-6.77E-11,,
,8.108006,-6.88E-11,,
,8.110006,-6.93E-11,,
,8.112006,-6.87E-11,,
,8.114006,-6.80E-11,,
,8.116006,-6.74E-11,,
,8.118006,-6.74E-11,,
,8.120006,-6.83E-11,,
,8.122006,-6.98E-11,,
,8.124006,-7.13E-11,,
,8.126006,-7.20E-11,,
,8.128006,-7.17E-11,,
,8.130006,-7.11E-11,,
,8.132006,-7.05E-11,,
,8.134006,-7.02E-11,,
,8.136006,-7.07E-11,,
,8.138006,-7.20E-11,,
,8.140006,-7.33E-11,,
,8.142006,-7.42E-11,,
,8.144006,-7.43E-11,,
,8.146006,-7.35E-11,,
,8.148006,-7.27E-11,,
,8.150006,-7.22E-11,,
,8.152006,-7.25E-11,,
,8.154006,-7.36E-11,,
,8.156006,-7.50E-11,,
,8.158006,-7.60E-11,,
,8.160006,-7.62E-11,,
,8.162006,-7.60E-11,,
,8.164006,-7.54E-11,,
,8.166006,-7.51E-11,,
,8.168006,-7.53E-11,,
,8.170006,-7.65E-11,,
,8.172006,-7.81E-11,,
,8.174006,-7.95E-11,,
,8.176006,-8.04E-11,,
,8.178006,-8.05E-11,,
,8.180006,-8.01E-11,,
,8.182006,-7.95E-11,,
,8.184006,-7.94E-11,,
,8.186006,-8.01E-11,,
,8.188006,-8.17E-11,,
,8.190006,-8.35E-11,,
,8.192006,-8.45E-11,,
,8.194006,-8.46E-11,,
,8.196006,-8.41E-11,,
,8.198006,-8.37E-11,,
,8.200006,-8.34E-11,,
,8.202006,-8.40E-11,,
,8.204006,-8.53E-11,,
,8.206006,-8.67E-11,,
,8.208006,-8.77E-11,,
,8.210006,-8.82E-11,,
,8.212006,-8.78E-11,,
,8.214006,-8.71E-11,,
,8.216006,-8.62E-11,,
,8.218006,-8.64E-11,,
,8.220006,-8.71E-11,,
,8.222006,-8.84E-11,,
,8.224006,-8.91E-11,,
,8.226006,-8.96E-11,,
,8.228006,-8.91E-11,,
,8.230006,-8.84E-11,,
,8.232006,-8.76E-11,,
,8.234006,-8.75E-11,,
,8.236006,-8.82E-11,,
,8.238006,-8.93E-11,,
,8.240006,-9.06E-11,,
,8.242006,-9.16E-11,,
,8.244006,-9.19E-11,,
,8.246006,-9.14E-11,,
,8.248006,-9.02E-11,,
,8.250006,-8.93E-11,,
,8.252006,-8.92E-11,,
,8.254006,-9.01E-11,,
,8.256006,-9.13E-11,,
,8.258006,-9.20E-11,,
,8.260006,-9.21E-11,,
,8.262006,-9.12E-11,,
,8.264006,-9.01E-11,,
,8.266006,-8.92E-11,,
,8.268006,-8.93E-11,,
,8.270006,-9.01E-11,,
,8.272006,-9.14E-11,,
,8.274006,-9.25E-11,,
,8.276006,-9.29E-11,,
,8.278006,-9.25E-11,,
,8.280006,-9.15E-11,,
,8.282006,-9.05E-11,,
,8.284006,-9.00E-11,,
,8.286006,-9.04E-11,,
,8.288006,-9.11E-11,,
,8.290006,-9.19E-11,,
,8.292006,-9.20E-11,,
,8.294006,-9.18E-11,,
,8.296006,-9.07E-11,,
,8.298006,-8.99E-11,,
,8.300006,-8.92E-11,,
,8.302006,-8.96E-11,,
,8.304006,-9.03E-11,,
,8.306006,-9.14E-11,,
,8.308006,-9.19E-11,,
,8.310006,-9.18E-11,,
,8.312006,-9.12E-11,,
,8.314006,-9.02E-11,,
,8.316006,-8.92E-11,,
,8.318006,-8.88E-11,,
,8.320006,-8.93E-11,,
,8.322006,-9.04E-11,,
,8.324006,-9.12E-11,,
,8.326006,-9.12E-11,,
,8.328006,-9.05E-11,,
,8.330006,-8.96E-11,,
,8.332006,-8.85E-11,,
,8.334006,-8.77E-11,,
,8.336006,-8.79E-11,,
,8.338006,-8.90E-11,,
,8.340006,-9.02E-11,,
,8.342006,-9.07E-11,,
,8.344006,-9.02E-11,,
,8.346006,-8.91E-11,,
,8.348006,-8.76E-11,,
,8.350006,-8.69E-11,,
,8.352006,-8.64E-11,,
,8.354006,-8.69E-11,,
,8.356006,-8.73E-11,,
,8.358006,-8.77E-11,,
,8.360006,-8.75E-11,,
,8.362006,-8.66E-11,,
,8.364006,-8.53E-11,,
,8.366006,-8.45E-11,,
,8.368006,-8.43E-11,,
,8.370006,-8.48E-11,,
,8.372006,-8.57E-11,,
,8.374006,-8.68E-11,,
,8.376006,-8.71E-11,,
,8.378006,-8.67E-11,,
,8.380006,-8.57E-11,,
,8.382006,-8.46E-11,,
,8.384006,-8.41E-11,,
,8.386006,-8.40E-11,,
,8.388006,-8.49E-11,,
,8.390006,-8.57E-11,,
,8.392006,-8.61E-11,,
,8.394006,-8.55E-11,,
,8.396006,-8.42E-11,,
,8.398006,-8.30E-11,,
,8.400006,-8.25E-11,,
,8.402006,-8.28E-11,,
,8.404006,-8.35E-11,,
,8.406006,-8.42E-11,,
,8.408006,-8.45E-11,,
,8.410006,-8.43E-11,,
,8.412006,-8.35E-11,,
,8.414006,-8.25E-11,,
,8.416006,-8.14E-11,,
,8.418006,-8.12E-11,,
,8.420006,-8.14E-11,,
,8.422006,-8.23E-11,,
,8.424006,-8.28E-11,,
,8.426006,-8.27E-11,,
,8.428006,-8.18E-11,,
,8.430006,-8.05E-11,,
,8.432006,-7.97E-11,,
,8.434006,-7.90E-11,,
,8.436006,-7.95E-11,,
,8.438006,-8.04E-11,,
,8.440006,-8.15E-11,,
,8.442006,-8.18E-11,,
,8.444006,-8.15E-11,,
,8.446006,-8.06E-11,,
,8.448006,-7.95E-11,,
,8.450006,-7.85E-11,,
,8.452006,-7.82E-11,,
,8.454006,-7.86E-11,,
,8.456006,-7.89E-11,,
,8.458006,-7.91E-11,,
,8.460006,-7.88E-11,,
,8.462006,-7.82E-11,,
,8.464006,-7.71E-11,,
,8.466006,-7.59E-11,,
,8.468006,-7.54E-11,,
,8.470006,-7.55E-11,,
,8.472006,-7.65E-11,,
,8.474006,-7.70E-11,,
,8.476006,-7.71E-11,,
,8.478006,-7.64E-11,,
,8.480006,-7.53E-11,,
,8.482006,-7.41E-11,,
,8.484006,-7.33E-11,,
,8.486006,-7.35E-11,,
,8.488006,-7.40E-11,,
,8.490006,-7.45E-11,,
,8.492006,-7.44E-11,,
,8.494006,-7.40E-11,,
,8.496006,-7.28E-11,,
,8.498006,-7.15E-11,,
,8.500006,-7.03E-11,,
,8.502006,-7.02E-11,,
,8.504006,-7.08E-11,,
,8.506006,-7.16E-11,,
,8.508006,-7.21E-11,,
,8.510006,-7.18E-11,,
,8.512006,-7.10E-11,,
,8.514006,-6.99E-11,,
,8.516006,-6.89E-11,,
,8.518006,-6.86E-11,,
,8.520006,-6.89E-11,,
,8.522006,-6.98E-11,,
,8.524006,-7.03E-11,,
,8.526006,-7.02E-11,,
,8.528006,-6.96E-11,,
,8.530006,-6.86E-11,,
,8.532006,-6.77E-11,,
,8.534006,-6.71E-11,,
,8.536006,-6.74E-11,,
,8.538006,-6.85E-11,,
,8.540006,-6.96E-11,,
,8.542006,-7.01E-11,,
,8.544006,-7.00E-11,,
,8.546006,-6.92E-11,,
,8.548006,-6.81E-11,,
,8.550006,-6.72E-11,,
,8.552006,-6.71E-11,,
,8.554006,-6.79E-11,,
,8.556006,-6.86E-11,,
,8.558006,-6.93E-11,,
,8.560006,-6.89E-11,,
,8.562006,-6.81E-11,,
,8.564006,-6.67E-11,,
,8.566006,-6.55E-11,,
,8.568006,-6.51E-11,,
,8.570006,-6.59E-11,,
,8.572006,-6.71E-11,,
,8.574006,-6.80E-11,,
,8.576006,-6.80E-11,,
,8.578006,-6.74E-11,,
,8.580006,-6.66E-11,,
,8.582006,-6.55E-11,,
,8.584006,-6.51E-11,,
,8.586006,-6.53E-11,,
,8.588006,-6.63E-11,,
,8.590006,-6.71E-11,,
,8.592006,-6.76E-11,,
,8.594006,-6.72E-11,,
,8.596006,-6.63E-11,,
,8.598006,-6.50E-11,,
,8.600006,-6.42E-11,,
,8.602006,-6.43E-11,,
,8.604006,-6.53E-11,,
,8.606006,-6.63E-11,,
,8.608006,-6.67E-11,,
,8.610006,-6.65E-11,,
,8.612006,-6.57E-11,,
,8.614006,-6.50E-11,,
,8.616006,-6.42E-11,,
,8.618006,-6.37E-11,,
,8.620006,-6.40E-11,,
,8.622006,-6.48E-11,,
,8.624006,-6.58E-11,,
,8.626006,-6.59E-11,,
,8.628006,-6.55E-11,,
,8.630006,-6.43E-11,,
,8.632006,-6.35E-11,,
,8.634006,-6.30E-11,,
,8.636006,-6.35E-11,,
,8.638006,-6.43E-11,,
,8.640006,-6.54E-11,,
,8.642006,-6.60E-11,,
,8.644006,-6.58E-11,,
,8.646006,-6.49E-11,,
,8.648006,-6.39E-11,,
,8.650006,-6.35E-11,,
,8.652006,-6.37E-11,,
,8.654006,-6.48E-11,,
,8.656006,-6.58E-11,,
,8.658006,-6.67E-11,,
,8.660006,-6.64E-11,,
,8.662006,-6.55E-11,,
,8.664006,-6.48E-11,,
,8.666006,-6.40E-11,,
,8.668006,-6.40E-11,,
,8.670006,-6.45E-11,,
,8.672006,-6.58E-11,,
,8.674006,-6.70E-11,,
,8.676006,-6.73E-11,,
,8.678006,-6.68E-11,,
,8.680006,-6.58E-11,,
,8.682006,-6.48E-11,,
,8.684006,-6.47E-11,,
,8.686006,-6.49E-11,,
,8.688006,-6.57E-11,,
,8.690006,-6.66E-11,,
,8.692006,-6.70E-11,,
,8.694006,-6.69E-11,,
,8.696006,-6.59E-11,,
,8.698006,-6.50E-11,,
,8.700006,-6.44E-11,,
,8.702006,-6.47E-11,,
,8.704006,-6.55E-11,,
,8.706006,-6.66E-11,,
,8.708006,-6.72E-11,,
,8.710006,-6.71E-11,,
,8.712006,-6.59E-11,,
,8.714006,-6.49E-11,,
,8.716006,-6.39E-11,,
,8.718006,-6.38E-11,,
,8.720006,-6.43E-11,,
,8.722006,-6.54E-11,,
,8.724006,-6.62E-11,,
,8.726006,-6.60E-11,,
,8.728006,-6.53E-11,,
,8.730006,-6.43E-11,,
,8.732006,-6.34E-11,,
,8.734006,-6.29E-11,,
,8.736006,-6.32E-11,,
,8.738006,-6.41E-11,,
,8.740006,-6.51E-11,,
,8.742006,-6.57E-11,,
,8.744006,-6.54E-11,,
,8.746006,-6.45E-11,,
,8.748006,-6.34E-11,,
,8.750006,-6.25E-11,,
,8.752006,-6.26E-11,,
,8.754006,-6.34E-11,,
,8.756006,-6.45E-11,,
,8.758006,-6.49E-11,,
,8.760006,-6.45E-11,,
,8.762006,-6.35E-11,,
,8.764006,-6.26E-11,,
,8.766006,-6.22E-11,,
,8.768006,-6.26E-11,,
,8.770006,-6.35E-11,,
,8.772006,-6.48E-11,,
,8.774006,-6.56E-11,,
,8.776006,-6.63E-11,,
,8.778006,-6.58E-11,,
,8.780006,-6.51E-11,,
,8.782006,-6.41E-11,,
,8.784006,-6.37E-11,,
,8.786006,-6.42E-11,,
,8.788006,-6.53E-11,,
,8.790006,-6.64E-11,,
,8.792006,-6.67E-11,,
,8.794006,-6.59E-11,,
,8.796006,-6.50E-11,,
,8.798006,-6.38E-11,,
,8.800006,-6.34E-11,,
,8.802006,-6.35E-11,,
,8.804006,-6.44E-11,,
,8.806006,-6.56E-11,,
,8.808006,-6.63E-11,,
,8.810006,-6.64E-11,,
,8.812006,-6.57E-11,,
,8.814006,-6.48E-11,,
,8.816006,-6.39E-11,,
,8.818006,-6.36E-11,,
,8.820006,-6.42E-11,,
,8.822006,-6.51E-11,,
,8.824006,-6.56E-11,,
,8.826006,-6.55E-11,,
,8.828006,-6.47E-11,,
,8.830006,-6.35E-11,,
,8.832006,-6.22E-11,,
,8.834006,-6.15E-11,,
,8.836006,-6.21E-11,,
,8.838006,-6.32E-11,,
,8.840006,-6.42E-11,,
,8.842006,-6.47E-11,,
,8.844006,-6.43E-11,,
,8.846006,-6.36E-11,,
,8.848006,-6.25E-11,,
,8.850006,-6.21E-11,,
,8.852006,-6.22E-11,,
,8.854006,-6.32E-11,,
,8.856006,-6.41E-11,,
,8.858006,-6.49E-11,,
,8.860006,-6.49E-11,,
,8.862006,-6.44E-11,,
,8.864006,-6.34E-11,,
,8.866006,-6.25E-11,,
,8.868006,-6.23E-11,,
,8.870006,-6.30E-11,,
,8.872006,-6.41E-11,,
,8.874006,-6.51E-11,,
,8.876006,-6.55E-11,,
,8.878006,-6.52E-11,,
,8.880006,-6.41E-11,,
,8.882006,-6.33E-11,,
,8.884006,-6.29E-11,,
,8.886006,-6.35E-11,,
,8.888006,-6.43E-11,,
,8.890006,-6.51E-11,,
,8.892006,-6.55E-11,,
,8.894006,-6.51E-11,,
,8.896006,-6.43E-11,,
,8.898006,-6.32E-11,,
,8.900006,-6.24E-11,,
,8.902006,-6.23E-11,,
,8.904006,-6.32E-11,,
,8.906006,-6.43E-11,,
,8.908006,-6.52E-11,,
,8.910006,-6.51E-11,,
,8.912006,-6.41E-11,,
,8.914006,-6.28E-11,,
,8.916006,-6.20E-11,,
,8.918006,-6.20E-11,,
,8.920006,-6.25E-11,,
,8.922006,-6.34E-11,,
,8.924006,-6.40E-11,,
,8.926006,-6.41E-11,,
,8.928006,-6.34E-11,,
,8.930006,-6.22E-11,,
,8.932006,-6.10E-11,,
,8.934006,-6.05E-11,,
,8.936006,-6.06E-11,,
,8.938006,-6.15E-11,,
,8.940006,-6.25E-11,,
,8.942006,-6.29E-11,,
,8.944006,-6.24E-11,,
,8.946006,-6.11E-11,,
,8.948006,-5.98E-11,,
,8.950006,-5.91E-11,,
,8.952006,-5.92E-11,,
,8.954006,-5.97E-11,,
,8.956006,-6.05E-11,,
,8.958006,-6.07E-11,,
,8.960006,-6.05E-11,,
,8.962006,-5.94E-11,,
,8.964006,-5.82E-11,,
,8.966006,-5.71E-11,,
,8.968006,-5.68E-11,,
,8.970006,-5.74E-11,,
,8.972006,-5.83E-11,,
,8.974006,-5.93E-11,,
,8.976006,-5.96E-11,,
,8.978006,-5.92E-11,,
,8.980006,-5.79E-11,,
,8.982006,-5.68E-11,,
,8.984006,-5.63E-11,,
,8.986006,-5.68E-11,,
,8.988006,-5.78E-11,,
,8.990006,-5.87E-11,,
,8.992006,-5.93E-11,,
,8.994006,-5.89E-11,,
,8.996006,-5.80E-11,,
,8.998006,-5.67E-11,,
,9.000006,-5.62E-11,,
,9.002006,-5.61E-11,,
,9.004006,-5.70E-11,,
,9.006006,-5.81E-11,,
,9.008006,-5.91E-11,,
,9.010006,-5.92E-11,,
,9.012006,-5.85E-11,,
,9.014006,-5.77E-11,,
,9.016006,-5.69E-11,,
,9.018006,-5.67E-11,,
,9.020006,-5.74E-11,,
,9.022006,-5.81E-11,,
,9.024006,-5.89E-11,,
,9.026006,-5.89E-11,,
,9.028006,-5.84E-11,,
,9.030006,-5.77E-11,,
,9.032006,-5.69E-11,,
,9.034006,-5.68E-11,,
,9.036006,-5.75E-11,,
,9.038006,-5.89E-11,,
,9.040006,-6.01E-11,,
,9.042006,-6.10E-11,,
,9.044006,-6.08E-11,,
,9.046006,-6.00E-11,,
,9.048006,-5.91E-11,,
,9.050006,-5.84E-11,,
,9.052006,-5.87E-11,,
,9.054006,-5.97E-11,,
,9.056006,-6.08E-11,,
,9.058006,-6.14E-11,,
,9.060006,-6.13E-11,,
,9.062006,-6.09E-11,,
,9.064006,-5.96E-11,,
,9.066006,-5.85E-11,,
,9.068006,-5.82E-11,,
,9.070006,-5.93E-11,,
,9.072006,-6.07E-11,,
,9.074006,-6.19E-11,,
,9.076006,-6.20E-11,,
,9.078006,-6.14E-11,,
,9.080006,-6.01E-11,,
,9.082006,-5.92E-11,,
,9.084006,-5.87E-11,,
,9.086006,-5.94E-11,,
,9.088006,-6.04E-11,,
,9.090006,-6.12E-11,,
,9.092006,-6.13E-11,,
,9.094006,-6.08E-11,,
,9.096006,-5.97E-11,,
,9.098006,-5.84E-11,,
,9.100006,-5.77E-11,,
,9.102006,-5.79E-11,,
,9.104006,-5.92E-11,,
,9.106006,-6.04E-11,,
,9.108006,-6.08E-11,,
,9.110006,-6.03E-11,,
,9.112006,-5.96E-11,,
,9.114006,-5.86E-11,,
,9.116006,-5.80E-11,,
,9.118006,-5.78E-11,,
,9.120006,-5.86E-11,,
,9.122006,-5.98E-11,,
,9.124006,-6.07E-11,,
,9.126006,-6.10E-11,,
,9.128006,-6.06E-11,,
,9.130006,-5.96E-11,,
,9.132006,-5.84E-11,,
,9.134006,-5.80E-11,,
,9.136006,-5.85E-11,,
,9.138006,-5.97E-11,,
,9.140006,-6.10E-11,,
,9.142006,-6.20E-11,,
,9.144006,-6.20E-11,,
,9.146006,-6.10E-11,,
,9.148006,-6.00E-11,,
,9.150006,-5.94E-11,,
,9.152006,-5.98E-11,,
,9.154006,-6.05E-11,,
,9.156006,-6.18E-11,,
,9.158006,-6.23E-11,,
,9.160006,-6.21E-11,,
,9.162006,-6.12E-11,,
,9.164006,-6.01E-11,,
,9.166006,-5.97E-11,,
,9.168006,-5.96E-11,,
,9.170006,-6.04E-11,,
,9.172006,-6.12E-11,,
,9.174006,-6.21E-11,,
,9.176006,-6.21E-11,,
,9.178006,-6.15E-11,,
,9.180006,-6.06E-11,,
,9.182006,-6.00E-11,,
,9.184006,-5.97E-11,,
,9.186006,-6.01E-11,,
,9.188006,-6.09E-11,,
,9.190006,-6.20E-11,,
,9.192006,-6.23E-11,,
,9.194006,-6.19E-11,,
,9.196006,-6.09E-11,,
,9.198006,-5.99E-11,,
,9.200006,-5.93E-11,,
,9.202006,-5.95E-11,,
,9.204006,-6.04E-11,,
,9.206006,-6.18E-11,,
,9.208006,-6.25E-11,,
,9.210006,-6.27E-11,,
,9.212006,-6.22E-11,,
,9.214006,-6.14E-11,,
,9.216006,-6.07E-11,,
,9.218006,-6.05E-11,,
,9.220006,-6.11E-11,,
,9.222006,-6.21E-11,,
,9.224006,-6.28E-11,,
,9.226006,-6.27E-11,,
,9.228006,-6.21E-11,,
,9.230006,-6.09E-11,,
,9.232006,-5.99E-11,,
,9.234006,-5.97E-11,,
,9.236006,-6.01E-11,,
,9.238006,-6.12E-11,,
,9.240006,-6.19E-11,,
,9.242006,-6.22E-11,,
,9.244006,-6.16E-11,,
,9.246006,-6.09E-11,,
,9.248006,-6.00E-11,,
,9.250006,-5.94E-11,,
,9.252006,-5.93E-11,,
,9.254006,-6.04E-11,,
,9.256006,-6.16E-11,,
,9.258006,-6.27E-11,,
,9.260006,-6.26E-11,,
,9.262006,-6.19E-11,,
,9.264006,-6.10E-11,,
,9.266006,-6.03E-11,,
,9.268006,-6.04E-11,,
,9.270006,-6.12E-11,,
,9.272006,-6.26E-11,,
,9.274006,-6.37E-11,,
,9.276006,-6.39E-11,,
,9.278006,-6.36E-11,,
,9.280006,-6.27E-11,,
,9.282006,-6.19E-11,,
,9.284006,-6.16E-11,,
,9.286006,-6.23E-11,,
,9.288006,-6.36E-11,,
,9.290006,-6.45E-11,,
,9.292006,-6.48E-11,,
,9.294006,-6.43E-11,,
,9.296006,-6.35E-11,,
,9.298006,-6.28E-11,,
,9.300006,-6.25E-11,,
,9.302006,-6.28E-11,,
,9.304006,-6.39E-11,,
,9.306006,-6.50E-11,,
,9.308006,-6.58E-11,,
,9.310006,-6.56E-11,,
,9.312006,-6.50E-11,,
,9.314006,-6.39E-11,,
,9.316006,-6.30E-11,,
,9.318006,-6.29E-11,,
,9.320006,-6.34E-11,,
,9.322006,-6.43E-11,,
,9.324006,-6.50E-11,,
,9.326006,-6.50E-11,,
,9.328006,-6.43E-11,,
,9.330006,-6.33E-11,,
,9.332006,-6.24E-11,,
,9.334006,-6.21E-11,,
,9.336006,-6.24E-11,,
,9.338006,-6.35E-11,,
,9.340006,-6.44E-11,,
,9.342006,-6.49E-11,,
,9.344006,-6.44E-11,,
,9.346006,-6.36E-11,,
,9.348006,-6.27E-11,,
,9.350006,-6.23E-11,,
,9.352006,-6.23E-11,,
,9.354006,-6.29E-11,,
,9.356006,-6.37E-11,,
,9.358006,-6.44E-11,,
,9.360006,-6.40E-11,,
,9.362006,-6.32E-11,,
,9.364006,-6.19E-11,,
,9.366006,-6.12E-11,,
,9.368006,-6.10E-11,,
,9.370006,-6.15E-11,,
,9.372006,-6.26E-11,,
,9.374006,-6.35E-11,,
,9.376006,-6.36E-11,,
,9.378006,-6.30E-11,,
,9.380006,-6.19E-11,,
,9.382006,-6.08E-11,,
,9.384006,-6.01E-11,,
,9.386006,-6.05E-11,,
,9.388006,-6.13E-11,,
,9.390006,-6.19E-11,,
,9.392006,-6.21E-11,,
,9.394006,-6.15E-11,,
,9.396006,-6.08E-11,,
,9.398006,-5.95E-11,,
,9.400006,-5.86E-11,,
,9.402006,-5.87E-11,,
,9.404006,-5.95E-11,,
,9.406006,-6.07E-11,,
,9.408006,-6.10E-11,,
,9.410006,-6.09E-11,,
,9.412006,-6.00E-11,,
,9.414006,-5.89E-11,,
,9.416006,-5.79E-11,,
,9.418006,-5.75E-11,,
,9.420006,-5.79E-11,,
,9.422006,-5.86E-11,,
,9.424006,-5.92E-11,,
,9.426006,-5.91E-11,,
,9.428006,-5.81E-11,,
,9.430006,-5.69E-11,,
,9.432006,-5.61E-11,,
,9.434006,-5.56E-11,,
,9.436006,-5.64E-11,,
,9.438006,-5.74E-11,,
,9.440006,-5.87E-11,,
,9.442006,-5.92E-11,,
,9.444006,-5.90E-11,,
,9.446006,-5.80E-11,,
,9.448006,-5.67E-11,,
,9.450006,-5.59E-11,,
,9.452006,-5.61E-11,,
,9.454006,-5.70E-11,,
,9.456006,-5.79E-11,,
,9.458006,-5.82E-11,,
,9.460006,-5.77E-11,,
,9.462006,-5.67E-11,,
,9.464006,-5.56E-11,,
,9.466006,-5.50E-11,,
,9.468006,-5.50E-11,,
,9.470006,-5.56E-11,,
,9.472006,-5.66E-11,,
,9.474006,-5.75E-11,,
,9.476006,-5.78E-11,,
,9.478006,-5.72E-11,,
,9.480006,-5.63E-11,,
,9.482006,-5.52E-11,,
,9.484006,-5.47E-11,,
,9.486006,-5.50E-11,,
,9.488006,-5.59E-11,,
,9.490006,-5.68E-11,,
,9.492006,-5.71E-11,,
,9.494006,-5.67E-11,,
,9.496006,-5.59E-11,,
,9.498006,-5.52E-11,,
,9.500006,-5.50E-11,,
,9.502006,-5.54E-11,,
,9.504006,-5.65E-11,,
,9.506006,-5.76E-11,,
,9.508006,-5.83E-11,,
,9.510006,-5.79E-11,,
,9.512006,-5.70E-11,,
,9.514006,-5.59E-11,,
,9.516006,-5.53E-11,,
,9.518006,-5.53E-11,,
,9.520006,-5.63E-11,,
,9.522006,-5.74E-11,,
,9.524006,-5.81E-11,,
,9.526006,-5.83E-11,,
,9.528006,-5.77E-11,,
,9.530006,-5.69E-11,,
,9.532006,-5.57E-11,,
,9.534006,-5.57E-11,,
,9.536006,-5.65E-11,,
,9.538006,-5.80E-11,,
,9.540006,-5.94E-11,,
,9.542006,-6.00E-11,,
,9.544006,-6.00E-11,,
,9.546006,-5.92E-11,,
,9.548006,-5.83E-11,,
,9.550006,-5.78E-11,,
,9.552006,-5.80E-11,,
,9.554006,-5.90E-11,,
,9.556006,-5.99E-11,,
,9.558006,-6.03E-11,,
,9.560006,-5.98E-11,,
,9.562006,-5.87E-11,,
,9.564006,-5.78E-11,,
,9.566006,-5.69E-11,,
,9.568006,-5.72E-11,,
,9.570006,-5.82E-11,,
,9.572006,-5.98E-11,,
,9.574006,-6.07E-11,,
,9.576006,-6.11E-11,,
,9.578006,-6.06E-11,,
,9.580006,-5.99E-11,,
,9.582006,-5.91E-11,,
,9.584006,-5.89E-11,,
,9.586006,-5.94E-11,,
,9.588006,-6.06E-11,,
,9.590006,-6.16E-11,,
,9.592006,-6.21E-11,,
,9.594006,-6.19E-11,,
,9.596006,-6.10E-11,,
,9.598006,-5.99E-11,,
,9.600006,-5.91E-11,,
,9.602006,-5.92E-11,,
,9.604006,-6.01E-11,,
,9.606006,-6.13E-11,,
,9.608006,-6.22E-11,,
,9.610006,-6.20E-11,,
,9.612006,-6.12E-11,,
,9.614006,-5.99E-11,,
,9.616006,-5.92E-11,,
,9.618006,-5.91E-11,,
,9.620006,-5.96E-11,,
,9.622006,-6.04E-11,,
,9.624006,-6.07E-11,,
,9.626006,-6.07E-11,,
,9.628006,-5.97E-11,,
,9.630006,-5.84E-11,,
,9.632006,-5.70E-11,,
,9.634006,-5.65E-11,,
,9.636006,-5.69E-11,,
,9.638006,-5.80E-11,,
,9.640006,-5.91E-11,,
,9.642006,-5.97E-11,,
,9.644006,-5.95E-11,,
,9.646006,-5.87E-11,,
,9.648006,-5.76E-11,,
,9.650006,-5.71E-11,,
,9.652006,-5.74E-11,,
,9.654006,-5.84E-11,,
,9.656006,-5.93E-11,,
,9.658006,-5.97E-11,,
,9.660006,-5.95E-11,,
,9.662006,-5.86E-11,,
,9.664006,-5.79E-11,,
,9.666006,-5.71E-11,,
,9.668006,-5.72E-11,,
,9.670006,-5.78E-11,,
,9.672006,-5.91E-11,,
,9.674006,-6.00E-11,,
,9.676006,-6.05E-11,,
,9.678006,-5.97E-11,,
,9.680006,-5.87E-11,,
,9.682006,-5.79E-11,,
,9.684006,-5.78E-11,,
,9.686006,-5.83E-11,,
,9.688006,-5.94E-11,,
,9.690006,-6.03E-11,,
,9.692006,-6.06E-11,,
,9.694006,-5.99E-11,,
,9.696006,-5.90E-11,,
,9.698006,-5.79E-11,,
,9.700006,-5.75E-11,,
,9.702006,-5.79E-11,,
,9.704006,-5.90E-11,,
,9.706006,-6.03E-11,,
,9.708006,-6.09E-11,,
,9.710006,-6.09E-11,,
,9.712006,-6.03E-11,,
,9.714006,-5.95E-11,,
,9.716006,-5.90E-11,,
,9.718006,-5.90E-11,,
,9.720006,-5.95E-11,,
,9.722006,-6.04E-11,,
,9.724006,-6.13E-11,,
,9.726006,-6.15E-11,,
,9.728006,-6.10E-11,,
,9.730006,-5.98E-11,,
,9.732006,-5.90E-11,,
,9.734006,-5.89E-11,,
,9.736006,-5.95E-11,,
,9.738006,-6.06E-11,,
,9.740006,-6.15E-11,,
,9.742006,-6.19E-11,,
,9.744006,-6.16E-11,,
,9.746006,-6.10E-11,,
,9.748006,-6.04E-11,,
,9.750006,-6.00E-11,,
,9.752006,-6.05E-11,,
,9.754006,-6.15E-11,,
,9.756006,-6.30E-11,,
,9.758006,-6.36E-11,,
,9.760006,-6.34E-11,,
,9.762006,-6.24E-11,,
,9.764006,-6.14E-11,,
,9.766006,-6.11E-11,,
,9.768006,-6.12E-11,,
,9.770006,-6.23E-11,,
,9.772006,-6.35E-11,,
,9.774006,-6.44E-11,,
,9.776006,-6.45E-11,,
,9.778006,-6.42E-11,,
,9.780006,-6.35E-11,,
,9.782006,-6.29E-11,,
,9.784006,-6.26E-11,,
,9.786006,-6.30E-11,,
,9.788006,-6.41E-11,,
,9.790006,-6.50E-11,,
,9.792006,-6.53E-11,,
,9.794006,-6.48E-11,,
,9.796006,-6.37E-11,,
,9.798006,-6.27E-11,,
,9.800006,-6.21E-11,,
,9.802006,-6.23E-11,,
,9.804006,-6.33E-11,,
,9.806006,-6.44E-11,,
,9.808006,-6.52E-11,,
,9.810006,-6.50E-11,,
,9.812006,-6.40E-11,,
,9.814006,-6.30E-11,,
,9.816006,-6.24E-11,,
,9.818006,-6.27E-11,,
,9.820006,-6.37E-11,,
,9.822006,-6.49E-11,,
,9.824006,-6.56E-11,,
,9.826006,-6.56E-11,,
,9.828006,-6.48E-11,,
,9.830006,-6.35E-11,,
,9.832006,-6.21E-11,,
,9.834006,-6.18E-11,,
,9.836006,-6.22E-11,,
,9.838006,-6.36E-11,,
,9.840006,-6.48E-11,,
,9.842006,-6.53E-11,,
,9.844006,-6.48E-11,,
,9.846006,-6.39E-11,,
,9.848006,-6.33E-11,,
,9.850006,-6.29E-11,,
,9.852006,-6.30E-11,,
,9.854006,-6.38E-11,,
,9.856006,-6.50E-11,,
,9.858006,-6.56E-11,,
,9.860006,-6.53E-11,,
,9.862006,-6.45E-11,,
,9.864006,-6.35E-11,,
,9.866006,-6.32E-11,,
,9.868006,-6.32E-11,,
,9.870006,-6.43E-11,,
,9.872006,-6.56E-11,,
,9.874006,-6.67E-11,,
,9.876006,-6.70E-11,,
,9.878006,-6.66E-11,,
,9.880006,-6.58E-11,,
,9.882006,-6.52E-11,,
,9.884006,-6.52E-11,,
,9.886006,-6.58E-11,,
,9.888006,-6.67E-11,,
,9.890006,-6.73E-11,,
,9.892006,-6.74E-11,,
,9.894006,-6.70E-11,,
,9.896006,-6.60E-11,,
,9.898006,-6.52E-11,,
,9.900006,-6.47E-11,,
,9.902006,-6.51E-11,,
,9.904006,-6.62E-11,,
,9.906006,-6.76E-11,,
,9.908006,-6.84E-11,,
,9.910006,-6.86E-11,,
,9.912006,-6.80E-11,,
,9.914006,-6.70E-11,,
,9.916006,-6.63E-11,,
,9.918006,-6.63E-11,,
,9.920006,-6.69E-11,,
,9.922006,-6.77E-11,,
,9.924006,-6.85E-11,,
,9.926006,-6.85E-11,,
,9.928006,-6.78E-11,,
,9.930006,-6.63E-11,,
,9.932006,-6.53E-11,,
,9.934006,-6.50E-11,,
,9.936006,-6.55E-11,,
,9.938006,-6.66E-11,,
,9.940006,-6.79E-11,,
,9.942006,-6.86E-11,,
,9.944006,-6.83E-11,,
,9.946006,-6.74E-11,,
,9.948006,-6.64E-11,,
,9.950006,-6.60E-11,,
,9.952006,-6.65E-11,,
,9.954006,-6.74E-11,,
,9.956006,-6.85E-11,,
,9.958006,-6.87E-11,,
,9.960006,-6.83E-11,,
,9.962006,-6.71E-11,,
,9.964006,-6.60E-11,,
,9.966006,-6.53E-11,,
,9.968006,-6.52E-11,,
,9.970006,-6.58E-11,,
,9.972006,-6.69E-11,,
,9.974006,-6.79E-11,,
,9.976006,-6.82E-11,,
,9.978006,-6.79E-11,,
,9.980006,-6.69E-11,,
,9.982006,-6.63E-11,,
,9.984006,-6.62E-11,,
,9.986006,-6.70E-11,,
,9.988006,-6.80E-11,,
,9.990006,-6.89E-11,,
,9.992006,-6.91E-11,,
,9.994006,-6.85E-11,,
,9.996006,-6.74E-11,,
,9.998006,-6.66E-11,,
,10.000006,-6.60E-11,,
,10.002006,-6.64E-11,,
,10.004006,-6.72E-11,,
,10.006006,-6.84E-11,,
,10.008006,-6.89E-11,,
,10.010006,-6.89E-11,,
,10.012006,-6.81E-11,,
,10.014006,-6.71E-11,,
,10.016006,-6.64E-11,,
,10.018006,-6.66E-11,,
,10.020006,-6.74E-11,,
,10.022006,-6.86E-11,,
,10.024006,-6.93E-11,,
,10.026006,-6.93E-11,,
,10.028006,-6.82E-11,,
,10.030006,-6.69E-11,,
,10.032006,-6.57E-11,,
,10.034006,-6.55E-11,,
,10.036006,-6.63E-11,,
,10.038006,-6.72E-11,,
,10.040006,-6.81E-11,,
,10.042006,-6.83E-11,,
,10.044006,-6.79E-11,,
,10.046006,-6.70E-11,,
,10.048006,-6.60E-11,,
,10.050006,-6.55E-11,,
,10.052006,-6.57E-11,,
,10.054006,-6.63E-11,,
,10.056006,-6.72E-11,,
,10.058006,-6.78E-11,,
,10.060006,-6.77E-11,,
,10.062006,-6.67E-11,,
,10.064006,-6.57E-11,,
,10.066006,-6.50E-11,,
,10.068006,-6.53E-11,,
,10.070006,-6.62E-11,,
,10.072006,-6.76E-11,,
,10.074006,-6.83E-11,,
,10.076006,-6.82E-11,,
,10.078006,-6.76E-11,,
,10.080006,-6.67E-11,,
,10.082006,-6.63E-11,,
,10.084006,-6.63E-11,,
,10.086006,-6.69E-11,,
,10.088006,-6.82E-11,,
,10.090006,-6.93E-11,,
,10.092006,-6.98E-11,,
,10.094006,-6.93E-11,,
,10.096006,-6.83E-11,,
,10.098006,-6.73E-11,,
,10.100006,-6.69E-11,,
,10.102006,-6.73E-11,,
,10.104006,-6.85E-11,,
,10.106006,-6.98E-11,,
,10.108006,-7.06E-11,,
,10.110006,-7.07E-11,,
,10.112006,-6.98E-11,,
,10.114006,-6.87E-11,,
,10.116006,-6.79E-11,,
,10.118006,-6.81E-11,,
,10.120006,-6.92E-11,,
,10.122006,-7.03E-11,,
,10.124006,-7.11E-11,,
,10.126006,-7.09E-11,,
,10.128006,-7.02E-11,,
,10.130006,-6.92E-11,,
,10.132006,-6.87E-11,,
,10.134006,-6.87E-11,,
,10.136006,-6.96E-11,,
,10.138006,-7.07E-11,,
,10.140006,-7.15E-11,,
,10.142006,-7.17E-11,,
,10.144006,-7.12E-11,,
,10.146006,-7.02E-11,,
,10.148006,-6.93E-11,,
,10.150006,-6.86E-11,,
,10.152006,-6.87E-11,,
,10.154006,-6.96E-11,,
,10.156006,-7.07E-11,,
,10.158006,-7.12E-11,,
,10.160006,-7.09E-11,,
,10.162006,-6.99E-11,,
,10.164006,-6.87E-11,,
,10.166006,-6.81E-11,,
,10.168006,-6.81E-11,,
,10.170006,-6.89E-11,,
,10.172006,-7.00E-11,,
,10.174006,-7.10E-11,,
,10.176006,-7.14E-11,,
,10.178006,-7.10E-11,,
,10.180006,-6.99E-11,,
,10.182006,-6.89E-11,,
,10.184006,-6.85E-11,,
,10.186006,-6.92E-11,,
,10.188006,-7.02E-11,,
,10.190006,-7.12E-11,,
,10.192006,-7.14E-11,,
,10.194006,-7.08E-11,,
,10.196006,-6.99E-11,,
,10.198006,-6.88E-11,,
,10.200006,-6.84E-11,,
,10.202006,-6.86E-11,,
,10.204006,-6.97E-11,,
,10.206006,-7.09E-11,,
,10.208006,-7.14E-11,,
,10.210006,-7.13E-11,,
,10.212006,-7.02E-11,,
,10.214006,-6.93E-11,,
,10.216006,-6.82E-11,,
,10.218006,-6.83E-11,,
,10.220006,-6.88E-11,,
,10.222006,-6.99E-11,,
,10.224006,-7.06E-11,,
,10.226006,-7.06E-11,,
,10.228006,-6.97E-11,,
,10.230006,-6.82E-11,,
,10.232006,-6.71E-11,,
,10.234006,-6.71E-11,,
,10.236006,-6.80E-11,,
,10.238006,-6.93E-11,,
,10.240006,-7.01E-11,,
,10.242006,-7.05E-11,,
,10.244006,-6.98E-11,,
,10.246006,-6.91E-11,,
,10.248006,-6.82E-11,,
,10.250006,-6.78E-11,,
,10.252006,-6.79E-11,,
,10.254006,-6.86E-11,,
,10.256006,-6.99E-11,,
,10.258006,-7.06E-11,,
,10.260006,-7.05E-11,,
,10.262006,-6.94E-11,,
,10.264006,-6.83E-11,,
,10.266006,-6.78E-11,,
,10.268006,-6.79E-11,,
,10.270006,-6.86E-11,,
,10.272006,-6.95E-11,,
,10.274006,-7.01E-11,,
,10.276006,-7.00E-11,,
,10.278006,-6.96E-11,,
,10.280006,-6.87E-11,,
,10.282006,-6.83E-11,,
,10.284006,-6.80E-11,,
,10.286006,-6.86E-11,,
,10.288006,-6.94E-11,,
,10.290006,-7.05E-11,,
,10.292006,-7.08E-11,,
,10.294006,-7.03E-11,,
,10.296006,-6.92E-11,,
,10.298006,-6.80E-11,,
,10.300006,-6.76E-11,,
,10.302006,-6.78E-11,,
,10.304006,-6.87E-11,,
,10.306006,-6.98E-11,,
,10.308006,-7.07E-11,,
,10.310006,-7.06E-11,,
,10.312006,-6.97E-11,,
,10.314006,-6.86E-11,,
,10.316006,-6.79E-11,,
,10.318006,-6.81E-11,,
,10.320006,-6.91E-11,,
,10.322006,-7.03E-11,,
,10.324006,-7.11E-11,,
,10.326006,-7.12E-11,,
,10.328006,-7.06E-11,,
,10.330006,-6.93E-11,,
,10.332006,-6.80E-11,,
,10.334006,-6.78E-11,,
,10.336006,-6.85E-11,,
,10.338006,-6.99E-11,,
,10.340006,-7.09E-11,,
,10.342006,-7.15E-11,,
,10.344006,-7.13E-11,,
,10.346006,-7.06E-11,,
,10.348006,-6.95E-11,,
,10.350006,-6.89E-11,,
,10.352006,-6.92E-11,,
,10.354006,-6.99E-11,,
,10.356006,-7.05E-11,,
,10.358006,-7.07E-11,,
,10.360006,-7.00E-11,,
,10.362006,-6.87E-11,,
,10.364006,-6.72E-11,,
,10.366006,-6.64E-11,,
,10.368006,-6.64E-11,,
,10.370006,-6.70E-11,,
,10.372006,-6.81E-11,,
,10.374006,-6.87E-11,,
,10.376006,-6.86E-11,,
,10.378006,-6.76E-11,,
,10.380006,-6.65E-11,,
,10.382006,-6.56E-11,,
,10.384006,-6.53E-11,,
,10.386006,-6.58E-11,,
,10.388006,-6.65E-11,,
,10.390006,-6.73E-11,,
,10.392006,-6.71E-11,,
,10.394006,-6.65E-11,,
,10.396006,-6.51E-11,,
,10.398006,-6.39E-11,,
,10.400006,-6.32E-11,,
,10.402006,-6.33E-11,,
,10.404006,-6.42E-11,,
,10.406006,-6.54E-11,,
,10.408006,-6.60E-11,,
,10.410006,-6.57E-11,,
,10.412006,-6.48E-11,,
,10.414006,-6.38E-11,,
,10.416006,-6.29E-11,,
,10.418006,-6.30E-11,,
,10.420006,-6.39E-11,,
,10.422006,-6.53E-11,,
,10.424006,-6.60E-11,,
,10.426006,-6.60E-11,,
,10.428006,-6.55E-11,,
,10.430006,-6.47E-11,,
,10.432006,-6.40E-11,,
,10.434006,-6.39E-11,,
,10.436006,-6.51E-11,,
,10.438006,-6.67E-11,,
,10.440006,-6.79E-11,,
,10.442006,-6.81E-11,,
,10.444006,-6.74E-11,,
,10.446006,-6.66E-11,,
,10.448006,-6.57E-11,,
,10.450006,-6.55E-11,,
,10.452006,-6.59E-11,,
,10.454006,-6.70E-11,,
,10.456006,-6.82E-11,,
,10.458006,-6.89E-11,,
,10.460006,-6.88E-11,,
,10.462006,-6.78E-11,,
,10.464006,-6.68E-11,,
,10.466006,-6.63E-11,,
,10.468006,-6.68E-11,,
,10.470006,-6.80E-11,,
,10.472006,-6.92E-11,,
,10.474006,-6.98E-11,,
,10.476006,-6.98E-11,,
,10.478006,-6.92E-11,,
,10.480006,-6.83E-11,,
,10.482006,-6.74E-11,,
,10.484006,-6.76E-11,,
,10.486006,-6.84E-11,,
,10.488006,-6.96E-11,,
,10.490006,-7.06E-11,,
,10.492006,-7.09E-11,,
,10.494006,-7.06E-11,,
,10.496006,-6.97E-11,,
,10.498006,-6.88E-11,,
,10.500006,-6.88E-11,,
,10.502006,-6.96E-11,,
,10.504006,-7.12E-11,,
,10.506006,-7.25E-11,,
,10.508006,-7.36E-11,,
,10.510006,-7.37E-11,,
,10.512006,-7.33E-11,,
,10.514006,-7.28E-11,,
,10.516006,-7.27E-11,,
,10.518006,-7.36E-11,,
,10.520006,-7.49E-11,,
,10.522006,-7.67E-11,,
,10.524006,-7.79E-11,,
,10.526006,-7.84E-11,,
,10.528006,-7.80E-11,,
,10.530006,-7.72E-11,,
,10.532006,-7.69E-11,,
,10.534006,-7.72E-11,,
,10.536006,-7.83E-11,,
,10.538006,-7.96E-11,,
,10.540006,-8.05E-11,,
,10.542006,-8.10E-11,,
,10.544006,-8.08E-11,,
,10.546006,-8.00E-11,,
,10.548006,-7.93E-11,,
,10.550006,-7.91E-11,,
,10.552006,-7.99E-11,,
,10.554006,-8.12E-11,,
,10.556006,-8.20E-11,,
,10.558006,-8.26E-11,,
,10.560006,-8.22E-11,,
,10.562006,-8.14E-11,,
,10.564006,-8.05E-11,,
,10.566006,-7.97E-11,,
,10.568006,-7.98E-11,,
,10.570006,-8.05E-11,,
,10.572006,-8.22E-11,,
,10.574006,-8.31E-11,,
,10.576006,-8.33E-11,,
,10.578006,-8.28E-11,,
,10.580006,-8.16E-11,,
,10.582006,-8.08E-11,,
,10.584006,-8.06E-11,,
,10.586006,-8.16E-11,,
,10.588006,-8.28E-11,,
,10.590006,-8.35E-11,,
,10.592006,-8.38E-11,,
,10.594006,-8.30E-11,,
,10.596006,-8.20E-11,,
,10.598006,-8.09E-11,,
,10.600006,-8.05E-11,,
,10.602006,-8.06E-11,,
,10.604006,-8.16E-11,,
,10.606006,-8.24E-11,,
,10.608006,-8.28E-11,,
,10.610006,-8.24E-11,,
,10.612006,-8.16E-11,,
,10.614006,-8.08E-11,,
,10.616006,-8.00E-11,,
,10.618006,-8.01E-11,,
,10.620006,-8.10E-11,,
,10.622006,-8.22E-11,,
,10.624006,-8.30E-11,,
,10.626006,-8.28E-11,,
,10.628006,-8.22E-11,,
,10.630006,-8.08E-11,,
,10.632006,-7.98E-11,,
,10.634006,-7.95E-11,,
,10.636006,-8.01E-11,,
,10.638006,-8.13E-11,,
,10.640006,-8.22E-11,,
,10.642006,-8.23E-11,,
,10.644006,-8.15E-11,,
,10.646006,-8.04E-11,,
,10.648006,-7.95E-11,,
,10.650006,-7.91E-11,,
,10.652006,-7.95E-11,,
,10.654006,-8.05E-11,,
,10.656006,-8.15E-11,,
,10.658006,-8.20E-11,,
,10.660006,-8.18E-11,,
,10.662006,-8.10E-11,,
,10.664006,-7.98E-11,,
,10.666006,-7.89E-11,,
,10.668006,-7.89E-11,,
,10.670006,-7.99E-11,,
,10.672006,-8.13E-11,,
,10.674006,-8.23E-11,,
,10.676006,-8.25E-11,,
,10.678006,-8.17E-11,,
,10.680006,-8.06E-11,,
,10.682006,-7.96E-11,,
,10.684006,-7.91E-11,,
,10.686006,-7.98E-11,,
,10.688006,-8.06E-11,,
,10.690006,-8.14E-11,,
,10.692006,-8.11E-11,,
,10.694006,-8.02E-11,,
,10.696006,-7.88E-11,,
,10.698006,-7.78E-11,,
,10.700006,-7.73E-11,,
,10.702006,-7.75E-11,,
,10.704006,-7.85E-11,,
,10.706006,-7.94E-11,,
,10.708006,-7.97E-11,,
,10.710006,-7.90E-11,,
,10.712006,-7.82E-11,,
,10.714006,-7.71E-11,,
,10.716006,-7.65E-11,,
,10.718006,-7.64E-11,,
,10.720006,-7.70E-11,,
,10.722006,-7.80E-11,,
,10.724006,-7.84E-11,,
,10.726006,-7.85E-11,,
,10.728006,-7.78E-11,,
,10.730006,-7.69E-11,,
,10.732006,-7.60E-11,,
,10.734006,-7.57E-11,,
,10.736006,-7.61E-11,,
,10.738006,-7.70E-11,,
,10.740006,-7.76E-11,,
,10.742006,-7.75E-11,,
,10.744006,-7.68E-11,,
,10.746006,-7.56E-11,,
,10.748006,-7.46E-11,,
,10.750006,-7.41E-11,,
,10.752006,-7.43E-11,,
,10.754006,-7.53E-11,,
,10.756006,-7.60E-11,,
,10.758006,-7.66E-11,,
,10.760006,-7.61E-11,,
,10.762006,-7.52E-11,,
,10.764006,-7.39E-11,,
,10.766006,-7.30E-11,,
,10.768006,-7.30E-11,,
,10.770006,-7.37E-11,,
,10.772006,-7.45E-11,,
,10.774006,-7.52E-11,,
,10.776006,-7.52E-11,,
,10.778006,-7.43E-11,,
,10.780006,-7.29E-11,,
,10.782006,-7.17E-11,,
,10.784006,-7.13E-11,,
,10.786006,-7.15E-11,,
,10.788006,-7.21E-11,,
,10.790006,-7.23E-11,,
,10.792006,-7.23E-11,,
,10.794006,-7.15E-11,,
,10.796006,-7.07E-11,,
,10.798006,-6.95E-11,,
,10.800006,-6.91E-11,,
,10.802006,-6.92E-11,,
,10.804006,-7.01E-11,,
,10.806006,-7.12E-11,,
,10.808006,-7.16E-11,,
,10.810006,-7.14E-11,,
,10.812006,-7.03E-11,,
,10.814006,-6.94E-11,,
,10.816006,-6.86E-11,,
,10.818006,-6.87E-11,,
,10.820006,-6.95E-11,,
,10.822006,-7.05E-11,,
,10.824006,-7.11E-11,,
,10.826006,-7.11E-11,,
,10.828006,-7.02E-11,,
,10.830006,-6.89E-11,,
,10.832006,-6.81E-11,,
,10.834006,-6.81E-11,,
,10.836006,-6.89E-11,,
,10.838006,-7.00E-11,,
,10.840006,-7.08E-11,,
,10.842006,-7.10E-11,,
,10.844006,-7.05E-11,,
,10.846006,-6.95E-11,,
,10.848006,-6.86E-11,,
,10.850006,-6.81E-11,,
,10.852006,-6.87E-11,,
,10.854006,-6.98E-11,,
,10.856006,-7.08E-11,,
,10.858006,-7.11E-11,,
,10.860006,-7.06E-11,,
,10.862006,-6.99E-11,,
,10.864006,-6.88E-11,,
,10.866006,-6.82E-11,,
,10.868006,-6.84E-11,,
,10.870006,-6.95E-11,,
,10.872006,-7.05E-11,,
,10.874006,-7.10E-11,,
,10.876006,-7.08E-11,,
,10.878006,-7.02E-11,,
,10.880006,-6.89E-11,,
,10.882006,-6.81E-11,,
,10.884006,-6.83E-11,,
,10.886006,-6.93E-11,,
,10.888006,-7.05E-11,,
,10.890006,-7.11E-11,,
,10.892006,-7.13E-11,,
,10.894006,-7.08E-11,,
,10.896006,-6.98E-11,,
,10.898006,-6.88E-11,,
,10.900006,-6.85E-11,,
,10.902006,-6.88E-11,,
,10.904006,-6.99E-11,,
,10.906006,-7.11E-11,,
,10.908006,-7.18E-11,,
,10.910006,-7.18E-11,,
,10.912006,-7.08E-11,,
,10.914006,-6.95E-11,,
,10.916006,-6.88E-11,,
,10.918006,-6.94E-11,,
,10.920006,-7.06E-11,,
,10.922006,-7.16E-11,,
,10.924006,-7.23E-11,,
,10.926006,-7.24E-11,,
,10.928006,-7.18E-11,,
,10.930006,-7.12E-11,,
,10.932006,-7.08E-11,,
,10.934006,-7.09E-11,,
,10.936006,-7.16E-11,,
,10.938006,-7.27E-11,,
,10.940006,-7.36E-11,,
,10.942006,-7.37E-11,,
,10.944006,-7.30E-11,,
,10.946006,-7.23E-11,,
,10.948006,-7.15E-11,,
,10.950006,-7.13E-11,,
,10.952006,-7.17E-11,,
,10.954006,-7.30E-11,,
,10.956006,-7.43E-11,,
,10.958006,-7.46E-11,,
,10.960006,-7.42E-11,,
,10.962006,-7.32E-11,,
,10.964006,-7.23E-11,,
,10.966006,-7.15E-11,,
,10.968006,-7.16E-11,,
,10.970006,-7.24E-11,,
,10.972006,-7.36E-11,,
,10.974006,-7.43E-11,,
,10.976006,-7.46E-11,,
,10.978006,-7.40E-11,,
,10.980006,-7.29E-11,,
,10.982006,-7.20E-11,,
,10.984006,-7.18E-11,,
,10.986006,-7.27E-11,,
,10.988006,-7.39E-11,,
,10.990006,-7.44E-11,,
,10.992006,-7.42E-11,,
,10.994006,-7.35E-11,,
,10.996006,-7.25E-11,,
,10.998006,-7.15E-11,,
,11.000006,-7.11E-11,,
,11.002006,-7.13E-11,,
