5/8/2019, 10:58:52 AM ,,,
 Current Sensitivity ,1.00E-09,,,
 This file comes from It only measurement ,0.00E+00,,,
 Sampling rate ,500,,,
 Number of samples per channel ,-1,,,
 No filter from Labview , , , ,
 , ,,,
 ***End_of_Header*** ,,,,
 , Time , Current , Filtered Current , 
,-0.004994,1.97E-11,,
,-0.002994,3.92E-11,,
,-0.000994,5.81E-11,,
,0.001006,5.67E-11,,
,0.003006,5.48E-11,,
,0.005006,5.28E-11,,
,0.007006,5.06E-11,,
,0.009006,4.86E-11,,
,0.011006,4.69E-11,,
,0.013006,4.51E-11,,
,0.015006,4.38E-11,,
,0.017006,4.18E-11,,
,0.019006,4.03E-11,,
,0.021006,3.81E-11,,
,0.023006,3.65E-11,,
,0.025006,3.44E-11,,
,0.027006,3.26E-11,,
,0.029006,3.08E-11,,
,0.031006,2.92E-11,,
,0.033006,2.74E-11,,
,0.035006,2.53E-11,,
,0.037006,2.29E-11,,
,0.039006,2.08E-11,,
,0.041006,1.88E-11,,
,0.043006,1.69E-11,,
,0.045006,1.51E-11,,
,0.047006,1.35E-11,,
,0.049006,1.19E-11,,
,0.051006,1.03E-11,,
,0.053006,8.35E-12,,
,0.055006,6.52E-12,,
,0.057006,4.48E-12,,
,0.059006,2.55E-12,,
,0.061006,9.41E-13,,
,0.063006,-4.55E-13,,
,0.065006,-1.85E-12,,
,0.067006,-3.46E-12,,
,0.069006,-5.07E-12,,
,0.071006,-6.68E-12,,
,0.073006,-8.29E-12,,
,0.075006,-1.01E-11,,
,0.077006,-1.14E-11,,
,0.079006,-1.28E-11,,
,0.081006,-1.40E-11,,
,0.083006,-1.54E-11,,
,0.085006,-1.69E-11,,
,0.087006,-1.82E-11,,
,0.089006,-1.97E-11,,
,0.091006,-2.10E-11,,
,0.093006,-2.22E-11,,
,0.095006,-2.34E-11,,
,0.097006,-2.44E-11,,
,0.099006,-2.54E-11,,
,0.101006,-2.65E-11,,
,0.103006,-2.79E-11,,
,0.105006,-2.95E-11,,
,0.107006,-3.11E-11,,
,0.109006,-3.23E-11,,
,0.111006,-3.35E-11,,
,0.113006,-3.46E-11,,
,0.115006,-3.57E-11,,
,0.117006,-3.65E-11,,
,0.119006,-3.74E-11,,
,0.121006,-3.88E-11,,
,0.123006,-4.03E-11,,
,0.125006,-4.18E-11,,
,0.127006,-4.28E-11,,
,0.129006,-4.38E-11,,
,0.131006,-4.48E-11,,
,0.133006,-4.59E-11,,
,0.135006,-4.69E-11,,
,0.137006,-4.82E-11,,
,0.139006,-4.96E-11,,
,0.141006,-5.11E-11,,
,0.143006,-5.23E-11,,
,0.145006,-5.34E-11,,
,0.147006,-5.39E-11,,
,0.149006,-5.46E-11,,
,0.151006,-5.51E-11,,
,0.153006,-5.63E-11,,
,0.155006,-5.75E-11,,
,0.157006,-5.89E-11,,
,0.159006,-5.99E-11,,
,0.161006,-6.11E-11,,
,0.163006,-6.20E-11,,
,0.165006,-6.28E-11,,
,0.167006,-6.37E-11,,
,0.169006,-6.50E-11,,
,0.171006,-6.64E-11,,
,0.173006,-6.77E-11,,
,0.175006,-6.86E-11,,
,0.177006,-6.95E-11,,
,0.179006,-7.02E-11,,
,0.181006,-7.11E-11,,
,0.183006,-7.18E-11,,
,0.185006,-7.27E-11,,
,0.187006,-7.39E-11,,
,0.189006,-7.52E-11,,
,0.191006,-7.64E-11,,
,0.193006,-7.73E-11,,
,0.195006,-7.82E-11,,
,0.197006,-7.90E-11,,
,0.199006,-7.95E-11,,
,0.201006,-8.02E-11,,
,0.203006,-8.09E-11,,
,0.205006,-8.20E-11,,
,0.207006,-8.31E-11,,
,0.209006,-8.42E-11,,
,0.211006,-8.49E-11,,
,0.213006,-8.53E-11,,
,0.215006,-8.58E-11,,
,0.217006,-8.61E-11,,
,0.219006,-8.69E-11,,
,0.221006,-8.76E-11,,
,0.223006,-8.85E-11,,
,0.225006,-8.90E-11,,
,0.227006,-8.93E-11,,
,0.229006,-8.99E-11,,
,0.231006,-9.00E-11,,
,0.233006,-9.02E-11,,
,0.235006,-9.05E-11,,
,0.237006,-9.13E-11,,
,0.239006,-9.21E-11,,
,0.241006,-9.26E-11,,
,0.243006,-9.29E-11,,
,0.245006,-9.28E-11,,
,0.247006,-9.29E-11,,
,0.249006,-9.31E-11,,
,0.251006,-9.34E-11,,
,0.253006,-9.37E-11,,
,0.255006,-9.42E-11,,
,0.257006,-9.45E-11,,
,0.259006,-9.47E-11,,
,0.261006,-9.46E-11,,
,0.263006,-9.46E-11,,
,0.265006,-9.45E-11,,
,0.267006,-9.46E-11,,
,0.269006,-9.48E-11,,
,0.271006,-9.53E-11,,
,0.273006,-9.58E-11,,
,0.275006,-9.62E-11,,
,0.277006,-9.64E-11,,
,0.279006,-9.63E-11,,
,0.281006,-9.61E-11,,
,0.283006,-9.60E-11,,
,0.285006,-9.60E-11,,
,0.287006,-9.63E-11,,
,0.289006,-9.69E-11,,
,0.291006,-9.75E-11,,
,0.293006,-9.76E-11,,
,0.295006,-9.77E-11,,
,0.297006,-9.74E-11,,
,0.299006,-9.74E-11,,
,0.301006,-9.72E-11,,
,0.303006,-9.75E-11,,
,0.305006,-9.79E-11,,
,0.307006,-9.83E-11,,
,0.309006,-9.85E-11,,
,0.311006,-9.85E-11,,
,0.313006,-9.85E-11,,
,0.315006,-9.83E-11,,
,0.317006,-9.83E-11,,
,0.319006,-9.86E-11,,
,0.321006,-9.88E-11,,
,0.323006,-9.92E-11,,
,0.325006,-9.91E-11,,
,0.327006,-9.93E-11,,
,0.329006,-9.91E-11,,
,0.331006,-9.92E-11,,
,0.333006,-9.91E-11,,
,0.335006,-9.92E-11,,
,0.337006,-9.95E-11,,
,0.339006,-9.99E-11,,
,0.341006,-1.00E-10,,
,0.343006,-1.00E-10,,
,0.345006,-1.00E-10,,
,0.347006,-1.00E-10,,
,0.349006,-1.00E-10,,
,0.351006,-1.00E-10,,
,0.353006,-1.01E-10,,
,0.355006,-1.01E-10,,
,0.357006,-1.01E-10,,
,0.359006,-1.02E-10,,
,0.361006,-1.02E-10,,
,0.363006,-1.02E-10,,
,0.365006,-1.02E-10,,
,0.367006,-1.02E-10,,
,0.369006,-1.02E-10,,
,0.371006,-1.03E-10,,
,0.373006,-1.03E-10,,
,0.375006,-1.03E-10,,
,0.377006,-1.04E-10,,
,0.379006,-1.04E-10,,
,0.381006,-1.04E-10,,
,0.383006,-1.04E-10,,
,0.385006,-1.04E-10,,
,0.387006,-1.05E-10,,
,0.389006,-1.05E-10,,
,0.391006,-1.05E-10,,
,0.393006,-1.06E-10,,
,0.395006,-1.06E-10,,
,0.397006,-1.06E-10,,
,0.399006,-1.06E-10,,
,0.401006,-1.06E-10,,
,0.403006,-1.07E-10,,
,0.405006,-1.07E-10,,
,0.407006,-1.08E-10,,
,0.409006,-1.08E-10,,
,0.411006,-1.09E-10,,
,0.413006,-1.09E-10,,
,0.415006,-1.09E-10,,
,0.417006,-1.09E-10,,
,0.419006,-1.09E-10,,
,0.421006,-1.10E-10,,
,0.423006,-1.10E-10,,
,0.425006,-1.10E-10,,
,0.427006,-1.11E-10,,
,0.429006,-1.11E-10,,
,0.431006,-1.11E-10,,
,0.433006,-1.11E-10,,
,0.435006,-1.11E-10,,
,0.437006,-1.12E-10,,
,0.439006,-1.12E-10,,
,0.441006,-1.13E-10,,
,0.443006,-1.13E-10,,
,0.445006,-1.13E-10,,
,0.447006,-1.13E-10,,
,0.449006,-1.13E-10,,
,0.451006,-1.13E-10,,
,0.453006,-1.13E-10,,
,0.455006,-1.14E-10,,
,0.457006,-1.14E-10,,
,0.459006,-1.15E-10,,
,0.461006,-1.14E-10,,
,0.463006,-1.14E-10,,
,0.465006,-1.14E-10,,
,0.467006,-1.14E-10,,
,0.469006,-1.14E-10,,
,0.471006,-1.14E-10,,
,0.473006,-1.14E-10,,
,0.475006,-1.14E-10,,
,0.477006,-1.14E-10,,
,0.479006,-1.14E-10,,
,0.481006,-1.14E-10,,
,0.483006,-1.14E-10,,
,0.485006,-1.14E-10,,
,0.487006,-1.14E-10,,
,0.489006,-1.14E-10,,
,0.491006,-1.14E-10,,
,0.493006,-1.14E-10,,
,0.495006,-1.14E-10,,
,0.497006,-1.14E-10,,
,0.499006,-1.13E-10,,
,0.501006,-1.13E-10,,
,0.503006,-1.13E-10,,
,0.505006,-1.13E-10,,
,0.507006,-1.13E-10,,
,0.509006,-1.13E-10,,
,0.511006,-1.12E-10,,
,0.513006,-1.12E-10,,
,0.515006,-1.12E-10,,
,0.517006,-1.12E-10,,
,0.519006,-1.11E-10,,
,0.521006,-1.11E-10,,
,0.523006,-1.11E-10,,
,0.525006,-1.11E-10,,
,0.527006,-1.11E-10,,
,0.529006,-1.11E-10,,
,0.531006,-1.10E-10,,
,0.533006,-1.10E-10,,
,0.535006,-1.10E-10,,
,0.537006,-1.10E-10,,
,0.539006,-1.11E-10,,
,0.541006,-1.10E-10,,
,0.543006,-1.10E-10,,
,0.545006,-1.10E-10,,
,0.547006,-1.10E-10,,
,0.549006,-1.10E-10,,
,0.551006,-1.10E-10,,
,0.553006,-1.10E-10,,
,0.555006,-1.10E-10,,
,0.557006,-1.10E-10,,
,0.559006,-1.11E-10,,
,0.561006,-1.11E-10,,
,0.563006,-1.11E-10,,
,0.565006,-1.11E-10,,
,0.567006,-1.10E-10,,
,0.569006,-1.11E-10,,
,0.571006,-1.11E-10,,
,0.573006,-1.12E-10,,
,0.575006,-1.12E-10,,
,0.577006,-1.12E-10,,
,0.579006,-1.12E-10,,
,0.581006,-1.12E-10,,
,0.583006,-1.12E-10,,
,0.585006,-1.13E-10,,
,0.587006,-1.13E-10,,
,0.589006,-1.13E-10,,
,0.591006,-1.14E-10,,
,0.593006,-1.14E-10,,
,0.595006,-1.14E-10,,
,0.597006,-1.14E-10,,
,0.599006,-1.15E-10,,
,0.601006,-1.15E-10,,
,0.603006,-1.15E-10,,
,0.605006,-1.16E-10,,
,0.607006,-1.17E-10,,
,0.609006,-1.17E-10,,
,0.611006,-1.18E-10,,
,0.613006,-1.18E-10,,
,0.615006,-1.18E-10,,
,0.617006,-1.18E-10,,
,0.619006,-1.19E-10,,
,0.621006,-1.20E-10,,
,0.623006,-1.20E-10,,
,0.625006,-1.21E-10,,
,0.627006,-1.22E-10,,
,0.629006,-1.22E-10,,
,0.631006,-1.22E-10,,
,0.633006,-1.23E-10,,
,0.635006,-1.23E-10,,
,0.637006,-1.24E-10,,
,0.639006,-1.25E-10,,
,0.641006,-1.25E-10,,
,0.643006,-1.26E-10,,
,0.645006,-1.26E-10,,
,0.647006,-1.27E-10,,
,0.649006,-1.27E-10,,
,0.651006,-1.28E-10,,
,0.653006,-1.28E-10,,
,0.655006,-1.29E-10,,
,0.657006,-1.29E-10,,
,0.659006,-1.30E-10,,
,0.661006,-1.31E-10,,
,0.663006,-1.31E-10,,
,0.665006,-1.31E-10,,
,0.667006,-1.32E-10,,
,0.669006,-1.32E-10,,
,0.671006,-1.33E-10,,
,0.673006,-1.33E-10,,
,0.675006,-1.34E-10,,
,0.677006,-1.34E-10,,
,0.679006,-1.35E-10,,
,0.681006,-1.35E-10,,
,0.683006,-1.35E-10,,
,0.685006,-1.36E-10,,
,0.687006,-1.36E-10,,
,0.689006,-1.37E-10,,
,0.691006,-1.38E-10,,
,0.693006,-1.38E-10,,
,0.695006,-1.38E-10,,
,0.697006,-1.38E-10,,
,0.699006,-1.38E-10,,
,0.701006,-1.38E-10,,
,0.703006,-1.39E-10,,
,0.705006,-1.39E-10,,
,0.707006,-1.40E-10,,
,0.709006,-1.40E-10,,
,0.711006,-1.40E-10,,
,0.713006,-1.40E-10,,
,0.715006,-1.40E-10,,
,0.717006,-1.41E-10,,
,0.719006,-1.41E-10,,
,0.721006,-1.42E-10,,
,0.723006,-1.42E-10,,
,0.725006,-1.42E-10,,
,0.727006,-1.42E-10,,
,0.729006,-1.42E-10,,
,0.731006,-1.42E-10,,
,0.733006,-1.42E-10,,
,0.735006,-1.42E-10,,
,0.737006,-1.42E-10,,
,0.739006,-1.43E-10,,
,0.741006,-1.43E-10,,
,0.743006,-1.43E-10,,
,0.745006,-1.43E-10,,
,0.747006,-1.43E-10,,
,0.749006,-1.43E-10,,
,0.751006,-1.43E-10,,
,0.753006,-1.43E-10,,
,0.755006,-1.43E-10,,
,0.757006,-1.43E-10,,
,0.759006,-1.43E-10,,
,0.761006,-1.43E-10,,
,0.763006,-1.43E-10,,
,0.765006,-1.43E-10,,
,0.767006,-1.42E-10,,
,0.769006,-1.42E-10,,
,0.771006,-1.43E-10,,
,0.773006,-1.43E-10,,
,0.775006,-1.43E-10,,
,0.777006,-1.43E-10,,
,0.779006,-1.42E-10,,
,0.781006,-1.42E-10,,
,0.783006,-1.42E-10,,
,0.785006,-1.42E-10,,
,0.787006,-1.41E-10,,
,0.789006,-1.41E-10,,
,0.791006,-1.42E-10,,
,0.793006,-1.41E-10,,
,0.795006,-1.41E-10,,
,0.797006,-1.40E-10,,
,0.799006,-1.39E-10,,
,0.801006,-1.39E-10,,
,0.803006,-1.39E-10,,
,0.805006,-1.39E-10,,
,0.807006,-1.38E-10,,
,0.809006,-1.38E-10,,
,0.811006,-1.37E-10,,
,0.813006,-1.36E-10,,
,0.815006,-1.35E-10,,
,0.817006,-1.34E-10,,
,0.819006,-1.34E-10,,
,0.821006,-1.33E-10,,
,0.823006,-1.33E-10,,
,0.825006,-1.32E-10,,
,0.827006,-1.31E-10,,
,0.829006,-1.30E-10,,
,0.831006,-1.29E-10,,
,0.833006,-1.28E-10,,
,0.835006,-1.27E-10,,
,0.837006,-1.26E-10,,
,0.839006,-1.25E-10,,
,0.841006,-1.25E-10,,
,0.843006,-1.24E-10,,
,0.845006,-1.23E-10,,
,0.847006,-1.21E-10,,
,0.849006,-1.20E-10,,
,0.851006,-1.19E-10,,
,0.853006,-1.18E-10,,
,0.855006,-1.17E-10,,
,0.857006,-1.16E-10,,
,0.859006,-1.15E-10,,
,0.861006,-1.14E-10,,
,0.863006,-1.13E-10,,
,0.865006,-1.12E-10,,
,0.867006,-1.11E-10,,
,0.869006,-1.10E-10,,
,0.871006,-1.09E-10,,
,0.873006,-1.08E-10,,
,0.875006,-1.08E-10,,
,0.877006,-1.07E-10,,
,0.879006,-1.05E-10,,
,0.881006,-1.04E-10,,
,0.883006,-1.03E-10,,
,0.885006,-1.02E-10,,
,0.887006,-1.02E-10,,
,0.889006,-1.01E-10,,
,0.891006,-1.00E-10,,
,0.893006,-9.91E-11,,
,0.895006,-9.84E-11,,
,0.897006,-9.72E-11,,
,0.899006,-9.63E-11,,
,0.901006,-9.54E-11,,
,0.903006,-9.50E-11,,
,0.905006,-9.45E-11,,
,0.907006,-9.42E-11,,
,0.909006,-9.35E-11,,
,0.911006,-9.29E-11,,
,0.913006,-9.18E-11,,
,0.915006,-9.10E-11,,
,0.917006,-9.01E-11,,
,0.919006,-8.97E-11,,
,0.921006,-8.93E-11,,
,0.923006,-8.92E-11,,
,0.925006,-8.87E-11,,
,0.927006,-8.81E-11,,
,0.929006,-8.73E-11,,
,0.931006,-8.64E-11,,
,0.933006,-8.55E-11,,
,0.935006,-8.49E-11,,
,0.937006,-8.48E-11,,
,0.939006,-8.49E-11,,
,0.941006,-8.47E-11,,
,0.943006,-8.45E-11,,
,0.945006,-8.38E-11,,
,0.947006,-8.32E-11,,
,0.949006,-8.25E-11,,
,0.951006,-8.22E-11,,
,0.953006,-8.20E-11,,
,0.955006,-8.20E-11,,
,0.957006,-8.20E-11,,
,0.959006,-8.18E-11,,
,0.961006,-8.14E-11,,
,0.963006,-8.12E-11,,
,0.965006,-8.06E-11,,
,0.967006,-8.02E-11,,
,0.969006,-8.01E-11,,
,0.971006,-8.00E-11,,
,0.973006,-8.03E-11,,
,0.975006,-8.00E-11,,
,0.977006,-7.98E-11,,
,0.979006,-7.94E-11,,
,0.981006,-7.91E-11,,
,0.983006,-7.89E-11,,
,0.985006,-7.87E-11,,
,0.987006,-7.86E-11,,
,0.989006,-7.86E-11,,
,0.991006,-7.87E-11,,
,0.993006,-7.86E-11,,
,0.995006,-7.84E-11,,
,0.997006,-7.82E-11,,
,0.999006,-7.81E-11,,
,1.001006,-7.81E-11,,
,1.003006,-7.82E-11,,
,1.005006,-7.84E-11,,
,1.007006,-7.86E-11,,
,1.009006,-7.87E-11,,
,1.011006,-7.86E-11,,
,1.013006,-7.87E-11,,
,1.015006,-7.87E-11,,
,1.017006,-7.88E-11,,
,1.019006,-7.89E-11,,
,1.021006,-7.95E-11,,
,1.023006,-8.02E-11,,
,1.025006,-8.09E-11,,
,1.027006,-8.12E-11,,
,1.029006,-8.13E-11,,
,1.031006,-8.15E-11,,
,1.033006,-8.18E-11,,
,1.035006,-8.25E-11,,
,1.037006,-8.31E-11,,
,1.039006,-8.42E-11,,
,1.041006,-8.52E-11,,
,1.043006,-8.61E-11,,
,1.045006,-8.67E-11,,
,1.047006,-8.71E-11,,
,1.049006,-8.78E-11,,
,1.051006,-8.88E-11,,
,1.053006,-9.00E-11,,
,1.055006,-9.11E-11,,
,1.057006,-9.22E-11,,
,1.059006,-9.34E-11,,
,1.061006,-9.47E-11,,
,1.063006,-9.57E-11,,
,1.065006,-9.65E-11,,
,1.067006,-9.73E-11,,
,1.069006,-9.85E-11,,
,1.071006,-9.99E-11,,
,1.073006,-1.01E-10,,
,1.075006,-1.03E-10,,
,1.077006,-1.04E-10,,
,1.079006,-1.05E-10,,
,1.081006,-1.06E-10,,
,1.083006,-1.07E-10,,
,1.085006,-1.09E-10,,
,1.087006,-1.10E-10,,
,1.089006,-1.13E-10,,
,1.091006,-1.15E-10,,
,1.093006,-1.16E-10,,
,1.095006,-1.18E-10,,
,1.097006,-1.19E-10,,
,1.099006,-1.21E-10,,
,1.101006,-1.23E-10,,
,1.103006,-1.25E-10,,
,1.105006,-1.28E-10,,
,1.107006,-1.31E-10,,
,1.109006,-1.33E-10,,
,1.111006,-1.36E-10,,
,1.113006,-1.39E-10,,
,1.115006,-1.42E-10,,
,1.117006,-1.46E-10,,
,1.119006,-1.49E-10,,
,1.121006,-1.53E-10,,
,1.123006,-1.57E-10,,
,1.125006,-1.61E-10,,
,1.127006,-1.64E-10,,
,1.129006,-1.68E-10,,
,1.131006,-1.72E-10,,
,1.133006,-1.77E-10,,
,1.135006,-1.81E-10,,
,1.137006,-1.86E-10,,
,1.139006,-1.91E-10,,
,1.141006,-1.97E-10,,
,1.143006,-2.02E-10,,
,1.145006,-2.07E-10,,
,1.147006,-2.12E-10,,
,1.149006,-2.17E-10,,
,1.151006,-2.23E-10,,
,1.153006,-2.28E-10,,
,1.155006,-2.34E-10,,
,1.157006,-2.40E-10,,
,1.159006,-2.46E-10,,
,1.161006,-2.51E-10,,
,1.163006,-2.57E-10,,
,1.165006,-2.63E-10,,
,1.167006,-2.69E-10,,
,1.169006,-2.75E-10,,
,1.171006,-2.82E-10,,
,1.173006,-2.88E-10,,
,1.175006,-2.95E-10,,
,1.177006,-3.01E-10,,
,1.179006,-3.07E-10,,
,1.181006,-3.14E-10,,
,1.183006,-3.21E-10,,
,1.185006,-3.28E-10,,
,1.187006,-3.35E-10,,
,1.189006,-3.42E-10,,
,1.191006,-3.49E-10,,
,1.193006,-3.57E-10,,
,1.195006,-3.64E-10,,
,1.197006,-3.71E-10,,
,1.199006,-3.79E-10,,
,1.201006,-3.87E-10,,
,1.203006,-3.94E-10,,
,1.205006,-4.03E-10,,
,1.207006,-4.11E-10,,
,1.209006,-4.20E-10,,
,1.211006,-4.29E-10,,
,1.213006,-4.37E-10,,
,1.215006,-4.46E-10,,
,1.217006,-4.54E-10,,
,1.219006,-4.63E-10,,
,1.221006,-4.72E-10,,
,1.223006,-4.82E-10,,
,1.225006,-4.92E-10,,
,1.227006,-5.01E-10,,
,1.229006,-5.11E-10,,
,1.231006,-5.20E-10,,
,1.233006,-5.30E-10,,
,1.235006,-5.40E-10,,
,1.237006,-5.50E-10,,
,1.239006,-5.60E-10,,
,1.241006,-5.71E-10,,
,1.243006,-5.81E-10,,
,1.245006,-5.91E-10,,
,1.247006,-6.01E-10,,
,1.249006,-6.12E-10,,
,1.251006,-6.22E-10,,
,1.253006,-6.33E-10,,
,1.255006,-6.43E-10,,
,1.257006,-6.54E-10,,
,1.259006,-6.65E-10,,
,1.261006,-6.76E-10,,
,1.263006,-6.86E-10,,
,1.265006,-6.96E-10,,
,1.267006,-7.07E-10,,
,1.269006,-7.17E-10,,
,1.271006,-7.28E-10,,
,1.273006,-7.39E-10,,
,1.275006,-7.49E-10,,
,1.277006,-7.58E-10,,
,1.279006,-7.68E-10,,
,1.281006,-7.77E-10,,
,1.283006,-7.86E-10,,
,1.285006,-7.95E-10,,
,1.287006,-8.04E-10,,
,1.289006,-8.13E-10,,
,1.291006,-8.21E-10,,
,1.293006,-8.29E-10,,
,1.295006,-8.36E-10,,
,1.297006,-8.43E-10,,
,1.299006,-8.49E-10,,
,1.301006,-8.55E-10,,
,1.303006,-8.61E-10,,
,1.305006,-8.66E-10,,
,1.307006,-8.72E-10,,
,1.309006,-8.76E-10,,
,1.311006,-8.80E-10,,
,1.313006,-8.83E-10,,
,1.315006,-8.85E-10,,
,1.317006,-8.86E-10,,
,1.319006,-8.88E-10,,
,1.321006,-8.89E-10,,
,1.323006,-8.90E-10,,
,1.325006,-8.90E-10,,
,1.327006,-8.89E-10,,
,1.329006,-8.87E-10,,
,1.331006,-8.85E-10,,
,1.333006,-8.82E-10,,
,1.335006,-8.79E-10,,
,1.337006,-8.75E-10,,
,1.339006,-8.71E-10,,
,1.341006,-8.66E-10,,
,1.343006,-8.60E-10,,
,1.345006,-8.54E-10,,
,1.347006,-8.47E-10,,
,1.349006,-8.39E-10,,
,1.351006,-8.31E-10,,
,1.353006,-8.22E-10,,
,1.355006,-8.13E-10,,
,1.357006,-8.03E-10,,
,1.359006,-7.93E-10,,
,1.361006,-7.82E-10,,
,1.363006,-7.69E-10,,
,1.365006,-7.57E-10,,
,1.367006,-7.43E-10,,
,1.369006,-7.30E-10,,
,1.371006,-7.16E-10,,
,1.373006,-7.02E-10,,
,1.375006,-6.87E-10,,
,1.377006,-6.71E-10,,
,1.379006,-6.54E-10,,
,1.381006,-6.37E-10,,
,1.383006,-6.19E-10,,
,1.385006,-6.01E-10,,
,1.387006,-5.83E-10,,
,1.389006,-5.64E-10,,
,1.391006,-5.44E-10,,
,1.393006,-5.24E-10,,
,1.395006,-5.04E-10,,
,1.397006,-4.83E-10,,
,1.399006,-4.61E-10,,
,1.401006,-4.39E-10,,
,1.403006,-4.18E-10,,
,1.405006,-3.96E-10,,
,1.407006,-3.74E-10,,
,1.409006,-3.52E-10,,
,1.411006,-3.30E-10,,
,1.413006,-3.07E-10,,
,1.415006,-2.84E-10,,
,1.417006,-2.60E-10,,
,1.419006,-2.37E-10,,
,1.421006,-2.14E-10,,
,1.423006,-1.91E-10,,
,1.425006,-1.68E-10,,
,1.427006,-1.45E-10,,
,1.429006,-1.21E-10,,
,1.431006,-9.76E-11,,
,1.433006,-7.40E-11,,
,1.435006,-5.06E-11,,
,1.437006,-2.71E-11,,
,1.439006,-3.78E-12,,
,1.441006,1.95E-11,,
,1.443006,4.28E-11,,
,1.445006,6.64E-11,,
,1.447006,9.05E-11,,
,1.449006,1.15E-10,,
,1.451006,1.39E-10,,
,1.453006,1.62E-10,,
,1.455006,1.86E-10,,
,1.457006,2.09E-10,,
,1.459006,2.33E-10,,
,1.461006,2.56E-10,,
,1.463006,2.80E-10,,
,1.465006,3.03E-10,,
,1.467006,3.26E-10,,
,1.469006,3.48E-10,,
,1.471006,3.70E-10,,
,1.473006,3.92E-10,,
,1.475006,4.14E-10,,
,1.477006,4.35E-10,,
,1.479006,4.57E-10,,
,1.481006,4.78E-10,,
,1.483006,4.98E-10,,
,1.485006,5.19E-10,,
,1.487006,5.39E-10,,
,1.489006,5.58E-10,,
,1.491006,5.77E-10,,
,1.493006,5.95E-10,,
,1.495006,6.14E-10,,
,1.497006,6.32E-10,,
,1.499006,6.49E-10,,
,1.501006,6.66E-10,,
,1.503006,6.82E-10,,
,1.505006,6.97E-10,,
,1.507006,7.12E-10,,
,1.509006,7.27E-10,,
,1.511006,7.40E-10,,
,1.513006,7.54E-10,,
,1.515006,7.67E-10,,
,1.517006,7.79E-10,,
,1.519006,7.91E-10,,
,1.521006,8.02E-10,,
,1.523006,8.12E-10,,
,1.525006,8.22E-10,,
,1.527006,8.31E-10,,
,1.529006,8.41E-10,,
,1.531006,8.50E-10,,
,1.533006,8.59E-10,,
,1.535006,8.67E-10,,
,1.537006,8.75E-10,,
,1.539006,8.83E-10,,
,1.541006,8.90E-10,,
,1.543006,8.97E-10,,
,1.545006,9.04E-10,,
,1.547006,9.11E-10,,
,1.549006,9.18E-10,,
,1.551006,9.25E-10,,
,1.553006,9.31E-10,,
,1.555006,9.37E-10,,
,1.557006,9.43E-10,,
,1.559006,9.49E-10,,
,1.561006,9.54E-10,,
,1.563006,9.60E-10,,
,1.565006,9.66E-10,,
,1.567006,9.71E-10,,
,1.569006,9.76E-10,,
,1.571006,9.81E-10,,
,1.573006,9.86E-10,,
,1.575006,9.90E-10,,
,1.577006,9.95E-10,,
,1.579006,9.99E-10,,
,1.581006,1.00E-09,,
,1.583006,1.01E-09,,
,1.585006,1.01E-09,,
,1.587006,1.02E-09,,
,1.589006,1.02E-09,,
,1.591006,1.02E-09,,
,1.593006,1.03E-09,,
,1.595006,1.03E-09,,
,1.597006,1.03E-09,,
,1.599006,1.04E-09,,
,1.601006,1.04E-09,,
,1.603006,1.04E-09,,
,1.605006,1.05E-09,,
,1.607006,1.05E-09,,
,1.609006,1.05E-09,,
,1.611006,1.05E-09,,
,1.613006,1.05E-09,,
,1.615006,1.05E-09,,
,1.617006,1.06E-09,,
,1.619006,1.06E-09,,
,1.621006,1.06E-09,,
,1.623006,1.05E-09,,
,1.625006,1.05E-09,,
,1.627006,1.05E-09,,
,1.629006,1.05E-09,,
,1.631006,1.05E-09,,
,1.633006,1.05E-09,,
,1.635006,1.04E-09,,
,1.637006,1.04E-09,,
,1.639006,1.03E-09,,
,1.641006,1.03E-09,,
,1.643006,1.02E-09,,
,1.645006,1.02E-09,,
,1.647006,1.01E-09,,
,1.649006,1.01E-09,,
,1.651006,9.99E-10,,
,1.653006,9.91E-10,,
,1.655006,9.82E-10,,
,1.657006,9.73E-10,,
,1.659006,9.63E-10,,
,1.661006,9.52E-10,,
,1.663006,9.42E-10,,
,1.665006,9.30E-10,,
,1.667006,9.18E-10,,
,1.669006,9.05E-10,,
,1.671006,8.91E-10,,
,1.673006,8.77E-10,,
,1.675006,8.62E-10,,
,1.677006,8.46E-10,,
,1.679006,8.30E-10,,
,1.681006,8.14E-10,,
,1.683006,7.97E-10,,
,1.685006,7.80E-10,,
,1.687006,7.61E-10,,
,1.689006,7.43E-10,,
,1.691006,7.24E-10,,
,1.693006,7.04E-10,,
,1.695006,6.84E-10,,
,1.697006,6.64E-10,,
,1.699006,6.44E-10,,
,1.701006,6.24E-10,,
,1.703006,6.02E-10,,
,1.705006,5.81E-10,,
,1.707006,5.59E-10,,
,1.709006,5.37E-10,,
,1.711006,5.15E-10,,
,1.713006,4.92E-10,,
,1.715006,4.70E-10,,
,1.717006,4.47E-10,,
,1.719006,4.24E-10,,
,1.721006,4.01E-10,,
,1.723006,3.78E-10,,
,1.725006,3.54E-10,,
,1.727006,3.31E-10,,
,1.729006,3.08E-10,,
,1.731006,2.84E-10,,
,1.733006,2.61E-10,,
,1.735006,2.37E-10,,
,1.737006,2.13E-10,,
,1.739006,1.88E-10,,
,1.741006,1.63E-10,,
,1.743006,1.39E-10,,
,1.745006,1.14E-10,,
,1.747006,8.92E-11,,
,1.749006,6.43E-11,,
,1.751006,3.85E-11,,
,1.753006,1.28E-11,,
,1.755006,-1.39E-11,,
,1.757006,-4.04E-11,,
,1.759006,-6.72E-11,,
,1.761006,-9.42E-11,,
,1.763006,-1.21E-10,,
,1.765006,-1.49E-10,,
,1.767006,-1.77E-10,,
,1.769006,-2.06E-10,,
,1.771006,-2.36E-10,,
,1.773006,-2.67E-10,,
,1.775006,-2.98E-10,,
,1.777006,-3.31E-10,,
,1.779006,-3.64E-10,,
,1.781006,-3.98E-10,,
,1.783006,-4.33E-10,,
,1.785006,-4.70E-10,,
,1.787006,-5.08E-10,,
,1.789006,-5.46E-10,,
,1.791006,-5.86E-10,,
,1.793006,-6.25E-10,,
,1.795006,-6.65E-10,,
,1.797006,-7.05E-10,,
,1.799006,-7.44E-10,,
,1.801006,-7.84E-10,,
,1.803006,-8.23E-10,,
,1.805006,-8.62E-10,,
,1.807006,-9.00E-10,,
,1.809006,-9.36E-10,,
,1.811006,-9.72E-10,,
,1.813006,-1.01E-09,,
,1.815006,-1.04E-09,,
,1.817006,-1.07E-09,,
,1.819006,-1.10E-09,,
,1.821006,-1.13E-09,,
,1.823006,-1.15E-09,,
,1.825006,-1.18E-09,,
,1.827006,-1.20E-09,,
,1.829006,-1.23E-09,,
,1.831006,-1.25E-09,,
,1.833006,-1.26E-09,,
,1.835006,-1.28E-09,,
,1.837006,-1.29E-09,,
,1.839006,-1.31E-09,,
,1.841006,-1.32E-09,,
,1.843006,-1.33E-09,,
,1.845006,-1.33E-09,,
,1.847006,-1.33E-09,,
,1.849006,-1.34E-09,,
,1.851006,-1.33E-09,,
,1.853006,-1.33E-09,,
,1.855006,-1.33E-09,,
,1.857006,-1.32E-09,,
,1.859006,-1.31E-09,,
,1.861006,-1.30E-09,,
,1.863006,-1.28E-09,,
,1.865006,-1.27E-09,,
,1.867006,-1.25E-09,,
,1.869006,-1.23E-09,,
,1.871006,-1.21E-09,,
,1.873006,-1.19E-09,,
,1.875006,-1.17E-09,,
,1.877006,-1.15E-09,,
,1.879006,-1.13E-09,,
,1.881006,-1.10E-09,,
,1.883006,-1.08E-09,,
,1.885006,-1.05E-09,,
,1.887006,-1.03E-09,,
,1.889006,-1.01E-09,,
,1.891006,-9.81E-10,,
,1.893006,-9.57E-10,,
,1.895006,-9.33E-10,,
,1.897006,-9.09E-10,,
,1.899006,-8.86E-10,,
,1.901006,-8.63E-10,,
,1.903006,-8.42E-10,,
,1.905006,-8.21E-10,,
,1.907006,-8.02E-10,,
,1.909006,-7.83E-10,,
,1.911006,-7.65E-10,,
,1.913006,-7.48E-10,,
,1.915006,-7.32E-10,,
,1.917006,-7.18E-10,,
,1.919006,-7.05E-10,,
,1.921006,-6.93E-10,,
,1.923006,-6.83E-10,,
,1.925006,-6.74E-10,,
,1.927006,-6.66E-10,,
,1.929006,-6.59E-10,,
,1.931006,-6.53E-10,,
,1.933006,-6.49E-10,,
,1.935006,-6.47E-10,,
,1.937006,-6.46E-10,,
,1.939006,-6.46E-10,,
,1.941006,-6.48E-10,,
,1.943006,-6.50E-10,,
,1.945006,-6.54E-10,,
,1.947006,-6.59E-10,,
,1.949006,-6.65E-10,,
,1.951006,-6.73E-10,,
,1.953006,-6.81E-10,,
,1.955006,-6.91E-10,,
,1.957006,-7.01E-10,,
,1.959006,-7.13E-10,,
,1.961006,-7.25E-10,,
,1.963006,-7.38E-10,,
,1.965006,-7.52E-10,,
,1.967006,-7.66E-10,,
,1.969006,-7.81E-10,,
,1.971006,-7.97E-10,,
,1.973006,-8.14E-10,,
,1.975006,-8.31E-10,,
,1.977006,-8.48E-10,,
,1.979006,-8.65E-10,,
,1.981006,-8.83E-10,,
,1.983006,-9.00E-10,,
,1.985006,-9.18E-10,,
,1.987006,-9.37E-10,,
,1.989006,-9.55E-10,,
,1.991006,-9.73E-10,,
,1.993006,-9.91E-10,,
,1.995006,-1.01E-09,,
,1.997006,-1.03E-09,,
,1.999006,-1.04E-09,,
,2.001006,-1.06E-09,,
,2.003006,-1.08E-09,,
,2.005006,-1.10E-09,,
,2.007006,-1.11E-09,,
,2.009006,-1.13E-09,,
,2.011006,-1.15E-09,,
,2.013006,-1.16E-09,,
,2.015006,-1.18E-09,,
,2.017006,-1.19E-09,,
,2.019006,-1.21E-09,,
,2.021006,-1.23E-09,,
,2.023006,-1.24E-09,,
,2.025006,-1.26E-09,,
,2.027006,-1.27E-09,,
,2.029006,-1.29E-09,,
,2.031006,-1.30E-09,,
,2.033006,-1.32E-09,,
,2.035006,-1.33E-09,,
,2.037006,-1.35E-09,,
,2.039006,-1.36E-09,,
,2.041006,-1.38E-09,,
,2.043006,-1.39E-09,,
,2.045006,-1.40E-09,,
,2.047006,-1.42E-09,,
,2.049006,-1.43E-09,,
,2.051006,-1.44E-09,,
,2.053006,-1.46E-09,,
,2.055006,-1.47E-09,,
,2.057006,-1.48E-09,,
,2.059006,-1.50E-09,,
,2.061006,-1.51E-09,,
,2.063006,-1.52E-09,,
,2.065006,-1.54E-09,,
,2.067006,-1.55E-09,,
,2.069006,-1.56E-09,,
,2.071006,-1.57E-09,,
,2.073006,-1.58E-09,,
,2.075006,-1.59E-09,,
,2.077006,-1.60E-09,,
,2.079006,-1.61E-09,,
,2.081006,-1.62E-09,,
,2.083006,-1.63E-09,,
,2.085006,-1.64E-09,,
,2.087006,-1.65E-09,,
,2.089006,-1.66E-09,,
,2.091006,-1.67E-09,,
,2.093006,-1.68E-09,,
,2.095006,-1.69E-09,,
,2.097006,-1.69E-09,,
,2.099006,-1.70E-09,,
,2.101006,-1.71E-09,,
,2.103006,-1.72E-09,,
,2.105006,-1.72E-09,,
,2.107006,-1.73E-09,,
,2.109006,-1.73E-09,,
,2.111006,-1.74E-09,,
,2.113006,-1.74E-09,,
,2.115006,-1.75E-09,,
,2.117006,-1.75E-09,,
,2.119006,-1.76E-09,,
,2.121006,-1.76E-09,,
,2.123006,-1.77E-09,,
,2.125006,-1.77E-09,,
,2.127006,-1.78E-09,,
,2.129006,-1.78E-09,,
,2.131006,-1.79E-09,,
,2.133006,-1.79E-09,,
,2.135006,-1.80E-09,,
,2.137006,-1.81E-09,,
,2.139006,-1.81E-09,,
,2.141006,-1.82E-09,,
,2.143006,-1.83E-09,,
,2.145006,-1.83E-09,,
,2.147006,-1.84E-09,,
,2.149006,-1.85E-09,,
,2.151006,-1.86E-09,,
,2.153006,-1.87E-09,,
,2.155006,-1.88E-09,,
,2.157006,-1.89E-09,,
,2.159006,-1.90E-09,,
,2.161006,-1.91E-09,,
,2.163006,-1.92E-09,,
,2.165006,-1.93E-09,,
,2.167006,-1.94E-09,,
,2.169006,-1.95E-09,,
,2.171006,-1.96E-09,,
,2.173006,-1.97E-09,,
,2.175006,-1.99E-09,,
,2.177006,-2.00E-09,,
,2.179006,-2.01E-09,,
,2.181006,-2.03E-09,,
,2.183006,-2.04E-09,,
,2.185006,-2.05E-09,,
,2.187006,-2.07E-09,,
,2.189006,-2.08E-09,,
,2.191006,-2.09E-09,,
,2.193006,-2.11E-09,,
,2.195006,-2.12E-09,,
,2.197006,-2.14E-09,,
,2.199006,-2.15E-09,,
,2.201006,-2.16E-09,,
,2.203006,-2.18E-09,,
,2.205006,-2.19E-09,,
,2.207006,-2.20E-09,,
,2.209006,-2.22E-09,,
,2.211006,-2.23E-09,,
,2.213006,-2.24E-09,,
,2.215006,-2.26E-09,,
,2.217006,-2.27E-09,,
,2.219006,-2.28E-09,,
,2.221006,-2.29E-09,,
,2.223006,-2.30E-09,,
,2.225006,-2.31E-09,,
,2.227006,-2.33E-09,,
,2.229006,-2.34E-09,,
,2.231006,-2.35E-09,,
,2.233006,-2.36E-09,,
,2.235006,-2.37E-09,,
,2.237006,-2.38E-09,,
,2.239006,-2.38E-09,,
,2.241006,-2.39E-09,,
,2.243006,-2.40E-09,,
,2.245006,-2.41E-09,,
,2.247006,-2.42E-09,,
,2.249006,-2.43E-09,,
,2.251006,-2.44E-09,,
,2.253006,-2.45E-09,,
,2.255006,-2.46E-09,,
,2.257006,-2.47E-09,,
,2.259006,-2.47E-09,,
,2.261006,-2.48E-09,,
,2.263006,-2.49E-09,,
,2.265006,-2.50E-09,,
,2.267006,-2.51E-09,,
,2.269006,-2.52E-09,,
,2.271006,-2.53E-09,,
,2.273006,-2.54E-09,,
,2.275006,-2.55E-09,,
,2.277006,-2.56E-09,,
,2.279006,-2.57E-09,,
,2.281006,-2.58E-09,,
,2.283006,-2.60E-09,,
,2.285006,-2.61E-09,,
,2.287006,-2.62E-09,,
,2.289006,-2.63E-09,,
,2.291006,-2.64E-09,,
,2.293006,-2.65E-09,,
,2.295006,-2.67E-09,,
,2.297006,-2.68E-09,,
,2.299006,-2.69E-09,,
,2.301006,-2.70E-09,,
,2.303006,-2.71E-09,,
,2.305006,-2.72E-09,,
,2.307006,-2.73E-09,,
,2.309006,-2.74E-09,,
,2.311006,-2.75E-09,,
,2.313006,-2.75E-09,,
,2.315006,-2.76E-09,,
,2.317006,-2.77E-09,,
,2.319006,-2.77E-09,,
,2.321006,-2.78E-09,,
,2.323006,-2.78E-09,,
,2.325006,-2.78E-09,,
,2.327006,-2.79E-09,,
,2.329006,-2.78E-09,,
,2.331006,-2.78E-09,,
,2.333006,-2.77E-09,,
,2.335006,-2.76E-09,,
,2.337006,-2.75E-09,,
,2.339006,-2.74E-09,,
,2.341006,-2.72E-09,,
,2.343006,-2.71E-09,,
,2.345006,-2.69E-09,,
,2.347006,-2.67E-09,,
,2.349006,-2.65E-09,,
,2.351006,-2.63E-09,,
,2.353006,-2.60E-09,,
,2.355006,-2.58E-09,,
,2.357006,-2.55E-09,,
,2.359006,-2.53E-09,,
,2.361006,-2.50E-09,,
,2.363006,-2.47E-09,,
,2.365006,-2.45E-09,,
,2.367006,-2.42E-09,,
,2.369006,-2.39E-09,,
,2.371006,-2.36E-09,,
,2.373006,-2.34E-09,,
,2.375006,-2.31E-09,,
,2.377006,-2.28E-09,,
,2.379006,-2.25E-09,,
,2.381006,-2.23E-09,,
,2.383006,-2.20E-09,,
,2.385006,-2.17E-09,,
,2.387006,-2.14E-09,,
,2.389006,-2.12E-09,,
,2.391006,-2.09E-09,,
,2.393006,-2.07E-09,,
,2.395006,-2.04E-09,,
,2.397006,-2.01E-09,,
,2.399006,-1.99E-09,,
,2.401006,-1.96E-09,,
,2.403006,-1.94E-09,,
,2.405006,-1.92E-09,,
,2.407006,-1.89E-09,,
,2.409006,-1.87E-09,,
,2.411006,-1.85E-09,,
,2.413006,-1.82E-09,,
,2.415006,-1.80E-09,,
,2.417006,-1.78E-09,,
,2.419006,-1.75E-09,,
,2.421006,-1.73E-09,,
,2.423006,-1.71E-09,,
,2.425006,-1.69E-09,,
,2.427006,-1.67E-09,,
,2.429006,-1.65E-09,,
,2.431006,-1.63E-09,,
,2.433006,-1.61E-09,,
,2.435006,-1.59E-09,,
,2.437006,-1.57E-09,,
,2.439006,-1.56E-09,,
,2.441006,-1.54E-09,,
,2.443006,-1.52E-09,,
,2.445006,-1.51E-09,,
,2.447006,-1.50E-09,,
,2.449006,-1.48E-09,,
,2.451006,-1.47E-09,,
,2.453006,-1.46E-09,,
,2.455006,-1.45E-09,,
,2.457006,-1.45E-09,,
,2.459006,-1.44E-09,,
,2.461006,-1.43E-09,,
,2.463006,-1.43E-09,,
,2.465006,-1.42E-09,,
,2.467006,-1.42E-09,,
,2.469006,-1.42E-09,,
,2.471006,-1.42E-09,,
,2.473006,-1.42E-09,,
,2.475006,-1.43E-09,,
,2.477006,-1.43E-09,,
,2.479006,-1.44E-09,,
,2.481006,-1.44E-09,,
,2.483006,-1.45E-09,,
,2.485006,-1.46E-09,,
,2.487006,-1.47E-09,,
,2.489006,-1.48E-09,,
,2.491006,-1.50E-09,,
,2.493006,-1.51E-09,,
,2.495006,-1.53E-09,,
,2.497006,-1.54E-09,,
,2.499006,-1.56E-09,,
,2.501006,-1.57E-09,,
,2.503006,-1.59E-09,,
,2.505006,-1.61E-09,,
,2.507006,-1.63E-09,,
,2.509006,-1.64E-09,,
,2.511006,-1.66E-09,,
,2.513006,-1.68E-09,,
,2.515006,-1.70E-09,,
,2.517006,-1.71E-09,,
,2.519006,-1.73E-09,,
,2.521006,-1.74E-09,,
,2.523006,-1.76E-09,,
,2.525006,-1.77E-09,,
,2.527006,-1.78E-09,,
,2.529006,-1.79E-09,,
,2.531006,-1.80E-09,,
,2.533006,-1.81E-09,,
,2.535006,-1.82E-09,,
,2.537006,-1.82E-09,,
,2.539006,-1.83E-09,,
,2.541006,-1.84E-09,,
,2.543006,-1.84E-09,,
,2.545006,-1.84E-09,,
,2.547006,-1.84E-09,,
,2.549006,-1.85E-09,,
,2.551006,-1.85E-09,,
,2.553006,-1.85E-09,,
,2.555006,-1.85E-09,,
,2.557006,-1.84E-09,,
,2.559006,-1.84E-09,,
,2.561006,-1.84E-09,,
,2.563006,-1.84E-09,,
,2.565006,-1.83E-09,,
,2.567006,-1.83E-09,,
,2.569006,-1.83E-09,,
,2.571006,-1.82E-09,,
,2.573006,-1.82E-09,,
,2.575006,-1.81E-09,,
,2.577006,-1.81E-09,,
,2.579006,-1.80E-09,,
,2.581006,-1.80E-09,,
,2.583006,-1.79E-09,,
,2.585006,-1.79E-09,,
,2.587006,-1.78E-09,,
,2.589006,-1.77E-09,,
,2.591006,-1.77E-09,,
,2.593006,-1.76E-09,,
,2.595006,-1.76E-09,,
,2.597006,-1.75E-09,,
,2.599006,-1.74E-09,,
,2.601006,-1.73E-09,,
,2.603006,-1.72E-09,,
,2.605006,-1.72E-09,,
,2.607006,-1.71E-09,,
,2.609006,-1.70E-09,,
,2.611006,-1.69E-09,,
,2.613006,-1.68E-09,,
,2.615006,-1.67E-09,,
,2.617006,-1.66E-09,,
,2.619006,-1.65E-09,,
,2.621006,-1.64E-09,,
,2.623006,-1.62E-09,,
,2.625006,-1.61E-09,,
,2.627006,-1.60E-09,,
,2.629006,-1.58E-09,,
,2.631006,-1.57E-09,,
,2.633006,-1.55E-09,,
,2.635006,-1.54E-09,,
,2.637006,-1.52E-09,,
,2.639006,-1.51E-09,,
,2.641006,-1.49E-09,,
,2.643006,-1.47E-09,,
,2.645006,-1.46E-09,,
,2.647006,-1.44E-09,,
,2.649006,-1.42E-09,,
,2.651006,-1.40E-09,,
,2.653006,-1.38E-09,,
,2.655006,-1.36E-09,,
,2.657006,-1.34E-09,,
,2.659006,-1.33E-09,,
,2.661006,-1.31E-09,,
,2.663006,-1.29E-09,,
,2.665006,-1.27E-09,,
,2.667006,-1.25E-09,,
,2.669006,-1.23E-09,,
,2.671006,-1.22E-09,,
,2.673006,-1.20E-09,,
,2.675006,-1.18E-09,,
,2.677006,-1.16E-09,,
,2.679006,-1.15E-09,,
,2.681006,-1.13E-09,,
,2.683006,-1.12E-09,,
,2.685006,-1.10E-09,,
,2.687006,-1.08E-09,,
,2.689006,-1.07E-09,,
,2.691006,-1.06E-09,,
,2.693006,-1.04E-09,,
,2.695006,-1.03E-09,,
,2.697006,-1.01E-09,,
,2.699006,-1.00E-09,,
,2.701006,-9.89E-10,,
,2.703006,-9.77E-10,,
,2.705006,-9.66E-10,,
,2.707006,-9.55E-10,,
,2.709006,-9.44E-10,,
,2.711006,-9.33E-10,,
,2.713006,-9.23E-10,,
,2.715006,-9.13E-10,,
,2.717006,-9.03E-10,,
,2.719006,-8.94E-10,,
,2.721006,-8.86E-10,,
,2.723006,-8.78E-10,,
,2.725006,-8.70E-10,,
,2.727006,-8.63E-10,,
,2.729006,-8.55E-10,,
,2.731006,-8.47E-10,,
,2.733006,-8.40E-10,,
,2.735006,-8.33E-10,,
,2.737006,-8.26E-10,,
,2.739006,-8.20E-10,,
,2.741006,-8.14E-10,,
,2.743006,-8.08E-10,,
,2.745006,-8.02E-10,,
,2.747006,-7.95E-10,,
,2.749006,-7.89E-10,,
,2.751006,-7.83E-10,,
,2.753006,-7.77E-10,,
,2.755006,-7.72E-10,,
,2.757006,-7.67E-10,,
,2.759006,-7.61E-10,,
,2.761006,-7.56E-10,,
,2.763006,-7.50E-10,,
,2.765006,-7.45E-10,,
,2.767006,-7.39E-10,,
,2.769006,-7.33E-10,,
,2.771006,-7.28E-10,,
,2.773006,-7.23E-10,,
,2.775006,-7.18E-10,,
,2.777006,-7.13E-10,,
,2.779006,-7.08E-10,,
,2.781006,-7.02E-10,,
,2.783006,-6.96E-10,,
,2.785006,-6.91E-10,,
,2.787006,-6.85E-10,,
,2.789006,-6.79E-10,,
,2.791006,-6.73E-10,,
,2.793006,-6.67E-10,,
,2.795006,-6.60E-10,,
,2.797006,-6.53E-10,,
,2.799006,-6.45E-10,,
,2.801006,-6.38E-10,,
,2.803006,-6.30E-10,,
,2.805006,-6.22E-10,,
,2.807006,-6.13E-10,,
,2.809006,-6.04E-10,,
,2.811006,-5.94E-10,,
,2.813006,-5.84E-10,,
,2.815006,-5.73E-10,,
,2.817006,-5.62E-10,,
,2.819006,-5.50E-10,,
,2.821006,-5.38E-10,,
,2.823006,-5.25E-10,,
,2.825006,-5.12E-10,,
,2.827006,-4.98E-10,,
,2.829006,-4.84E-10,,
,2.831006,-4.69E-10,,
,2.833006,-4.54E-10,,
,2.835006,-4.38E-10,,
,2.837006,-4.22E-10,,
,2.839006,-4.07E-10,,
,2.841006,-3.90E-10,,
,2.843006,-3.74E-10,,
,2.845006,-3.57E-10,,
,2.847006,-3.39E-10,,
,2.849006,-3.22E-10,,
,2.851006,-3.04E-10,,
,2.853006,-2.86E-10,,
,2.855006,-2.69E-10,,
,2.857006,-2.51E-10,,
,2.859006,-2.33E-10,,
,2.861006,-2.15E-10,,
,2.863006,-1.98E-10,,
,2.865006,-1.80E-10,,
,2.867006,-1.62E-10,,
,2.869006,-1.45E-10,,
,2.871006,-1.28E-10,,
,2.873006,-1.11E-10,,
,2.875006,-9.45E-11,,
,2.877006,-7.81E-11,,
,2.879006,-6.22E-11,,
,2.881006,-4.63E-11,,
,2.883006,-3.08E-11,,
,2.885006,-1.57E-11,,
,2.887006,-1.31E-12,,
,2.889006,1.25E-11,,
,2.891006,2.58E-11,,
,2.893006,3.87E-11,,
,2.895006,5.13E-11,,
,2.897006,6.36E-11,,
,2.899006,7.53E-11,,
,2.901006,8.67E-11,,
,2.903006,9.71E-11,,
,2.905006,1.07E-10,,
,2.907006,1.16E-10,,
,2.909006,1.24E-10,,
,2.911006,1.32E-10,,
,2.913006,1.40E-10,,
,2.915006,1.47E-10,,
,2.917006,1.53E-10,,
,2.919006,1.60E-10,,
,2.921006,1.65E-10,,
,2.923006,1.69E-10,,
,2.925006,1.73E-10,,
,2.927006,1.76E-10,,
,2.929006,1.79E-10,,
,2.931006,1.82E-10,,
,2.933006,1.84E-10,,
,2.935006,1.85E-10,,
,2.937006,1.85E-10,,
,2.939006,1.85E-10,,
,2.941006,1.84E-10,,
,2.943006,1.83E-10,,
,2.945006,1.81E-10,,
,2.947006,1.79E-10,,
,2.949006,1.76E-10,,
,2.951006,1.73E-10,,
,2.953006,1.69E-10,,
,2.955006,1.64E-10,,
,2.957006,1.58E-10,,
,2.959006,1.52E-10,,
,2.961006,1.45E-10,,
,2.963006,1.39E-10,,
,2.965006,1.32E-10,,
,2.967006,1.24E-10,,
,2.969006,1.16E-10,,
,2.971006,1.07E-10,,
,2.973006,9.73E-11,,
,2.975006,8.77E-11,,
,2.977006,7.77E-11,,
,2.979006,6.78E-11,,
,2.981006,5.71E-11,,
,2.983006,4.64E-11,,
,2.985006,3.49E-11,,
,2.987006,2.33E-11,,
,2.989006,1.11E-11,,
,2.991006,-1.10E-12,,
,2.993006,-1.36E-11,,
,2.995006,-2.61E-11,,
,2.997006,-3.87E-11,,
,2.999006,-5.14E-11,,
,3.001006,-6.45E-11,,
,3.003006,-7.81E-11,,
,3.005006,-9.18E-11,,
,3.007006,-1.06E-10,,
,3.009006,-1.20E-10,,
,3.011006,-1.34E-10,,
,3.013006,-1.48E-10,,
,3.015006,-1.62E-10,,
,3.017006,-1.76E-10,,
,3.019006,-1.90E-10,,
,3.021006,-2.05E-10,,
,3.023006,-2.20E-10,,
,3.025006,-2.35E-10,,
,3.027006,-2.50E-10,,
,3.029006,-2.65E-10,,
,3.031006,-2.80E-10,,
,3.033006,-2.95E-10,,
,3.035006,-3.10E-10,,
,3.037006,-3.25E-10,,
,3.039006,-3.40E-10,,
,3.041006,-3.55E-10,,
,3.043006,-3.70E-10,,
,3.045006,-3.84E-10,,
,3.047006,-3.98E-10,,
,3.049006,-4.12E-10,,
,3.051006,-4.26E-10,,
,3.053006,-4.39E-10,,
,3.055006,-4.52E-10,,
,3.057006,-4.65E-10,,
,3.059006,-4.76E-10,,
,3.061006,-4.87E-10,,
,3.063006,-4.98E-10,,
,3.065006,-5.07E-10,,
,3.067006,-5.16E-10,,
,3.069006,-5.24E-10,,
,3.071006,-5.32E-10,,
,3.073006,-5.39E-10,,
,3.075006,-5.45E-10,,
,3.077006,-5.50E-10,,
,3.079006,-5.55E-10,,
,3.081006,-5.58E-10,,
,3.083006,-5.60E-10,,
,3.085006,-5.62E-10,,
,3.087006,-5.64E-10,,
,3.089006,-5.65E-10,,
,3.091006,-5.65E-10,,
,3.093006,-5.65E-10,,
,3.095006,-5.64E-10,,
,3.097006,-5.62E-10,,
,3.099006,-5.59E-10,,
,3.101006,-5.57E-10,,
,3.103006,-5.54E-10,,
,3.105006,-5.51E-10,,
,3.107006,-5.47E-10,,
,3.109006,-5.44E-10,,
,3.111006,-5.39E-10,,
,3.113006,-5.34E-10,,
,3.115006,-5.28E-10,,
,3.117006,-5.22E-10,,
,3.119006,-5.16E-10,,
,3.121006,-5.09E-10,,
,3.123006,-5.02E-10,,
,3.125006,-4.94E-10,,
,3.127006,-4.85E-10,,
,3.129006,-4.76E-10,,
,3.131006,-4.65E-10,,
,3.133006,-4.55E-10,,
,3.135006,-4.43E-10,,
,3.137006,-4.31E-10,,
,3.139006,-4.18E-10,,
,3.141006,-4.05E-10,,
,3.143006,-3.91E-10,,
,3.145006,-3.76E-10,,
,3.147006,-3.60E-10,,
,3.149006,-3.43E-10,,
,3.151006,-3.26E-10,,
,3.153006,-3.08E-10,,
,3.155006,-2.89E-10,,
,3.157006,-2.70E-10,,
,3.159006,-2.51E-10,,
,3.161006,-2.31E-10,,
,3.163006,-2.10E-10,,
,3.165006,-1.88E-10,,
,3.167006,-1.66E-10,,
,3.169006,-1.44E-10,,
,3.171006,-1.22E-10,,
,3.173006,-9.86E-11,,
,3.175006,-7.52E-11,,
,3.177006,-5.16E-11,,
,3.179006,-2.74E-11,,
,3.181006,-2.60E-12,,
,3.183006,2.27E-11,,
,3.185006,4.82E-11,,
,3.187006,7.38E-11,,
,3.189006,9.99E-11,,
,3.191006,1.26E-10,,
,3.193006,1.53E-10,,
,3.195006,1.81E-10,,
,3.197006,2.09E-10,,
,3.199006,2.37E-10,,
,3.201006,2.66E-10,,
,3.203006,2.94E-10,,
,3.205006,3.23E-10,,
,3.207006,3.52E-10,,
,3.209006,3.81E-10,,
,3.211006,4.09E-10,,
,3.213006,4.38E-10,,
,3.215006,4.66E-10,,
,3.217006,4.95E-10,,
,3.219006,5.23E-10,,
,3.221006,5.50E-10,,
,3.223006,5.77E-10,,
,3.225006,6.03E-10,,
,3.227006,6.29E-10,,
,3.229006,6.55E-10,,
,3.231006,6.79E-10,,
,3.233006,7.03E-10,,
,3.235006,7.26E-10,,
,3.237006,7.48E-10,,
,3.239006,7.68E-10,,
,3.241006,7.87E-10,,
,3.243006,8.05E-10,,
,3.245006,8.23E-10,,
,3.247006,8.39E-10,,
,3.249006,8.54E-10,,
,3.251006,8.68E-10,,
,3.253006,8.80E-10,,
,3.255006,8.91E-10,,
,3.257006,9.01E-10,,
,3.259006,9.11E-10,,
,3.261006,9.19E-10,,
,3.263006,9.27E-10,,
,3.265006,9.35E-10,,
,3.267006,9.41E-10,,
,3.269006,9.47E-10,,
,3.271006,9.52E-10,,
,3.273006,9.57E-10,,
,3.275006,9.62E-10,,
,3.277006,9.66E-10,,
,3.279006,9.71E-10,,
,3.281006,9.75E-10,,
,3.283006,9.79E-10,,
,3.285006,9.84E-10,,
,3.287006,9.88E-10,,
,3.289006,9.92E-10,,
,3.291006,9.97E-10,,
,3.293006,1.00E-09,,
,3.295006,1.01E-09,,
,3.297006,1.01E-09,,
,3.299006,1.02E-09,,
,3.301006,1.02E-09,,
,3.303006,1.03E-09,,
,3.305006,1.04E-09,,
,3.307006,1.05E-09,,
,3.309006,1.05E-09,,
,3.311006,1.06E-09,,
,3.313006,1.07E-09,,
,3.315006,1.08E-09,,
,3.317006,1.09E-09,,
,3.319006,1.10E-09,,
,3.321006,1.11E-09,,
,3.323006,1.12E-09,,
,3.325006,1.13E-09,,
,3.327006,1.14E-09,,
,3.329006,1.14E-09,,
,3.331006,1.15E-09,,
,3.333006,1.16E-09,,
,3.335006,1.17E-09,,
,3.337006,1.18E-09,,
,3.339006,1.19E-09,,
,3.341006,1.20E-09,,
,3.343006,1.20E-09,,
,3.345006,1.21E-09,,
,3.347006,1.22E-09,,
,3.349006,1.22E-09,,
,3.351006,1.23E-09,,
,3.353006,1.23E-09,,
,3.355006,1.24E-09,,
,3.357006,1.24E-09,,
,3.359006,1.25E-09,,
,3.361006,1.25E-09,,
,3.363006,1.26E-09,,
,3.365006,1.26E-09,,
,3.367006,1.26E-09,,
,3.369006,1.27E-09,,
,3.371006,1.27E-09,,
,3.373006,1.27E-09,,
,3.375006,1.28E-09,,
,3.377006,1.28E-09,,
,3.379006,1.28E-09,,
,3.381006,1.28E-09,,
,3.383006,1.29E-09,,
,3.385006,1.29E-09,,
,3.387006,1.29E-09,,
,3.389006,1.30E-09,,
,3.391006,1.30E-09,,
,3.393006,1.30E-09,,
,3.395006,1.31E-09,,
,3.397006,1.31E-09,,
,3.399006,1.31E-09,,
,3.401006,1.32E-09,,
,3.403006,1.32E-09,,
,3.405006,1.33E-09,,
,3.407006,1.33E-09,,
,3.409006,1.34E-09,,
,3.411006,1.34E-09,,
,3.413006,1.35E-09,,
,3.415006,1.36E-09,,
,3.417006,1.37E-09,,
,3.419006,1.37E-09,,
,3.421006,1.38E-09,,
,3.423006,1.39E-09,,
,3.425006,1.40E-09,,
,3.427006,1.41E-09,,
,3.429006,1.42E-09,,
,3.431006,1.43E-09,,
,3.433006,1.44E-09,,
,3.435006,1.45E-09,,
,3.437006,1.46E-09,,
,3.439006,1.48E-09,,
,3.441006,1.49E-09,,
,3.443006,1.50E-09,,
,3.445006,1.51E-09,,
,3.447006,1.53E-09,,
,3.449006,1.54E-09,,
,3.451006,1.55E-09,,
,3.453006,1.57E-09,,
,3.455006,1.58E-09,,
,3.457006,1.59E-09,,
,3.459006,1.61E-09,,
,3.461006,1.62E-09,,
,3.463006,1.63E-09,,
,3.465006,1.65E-09,,
,3.467006,1.66E-09,,
,3.469006,1.68E-09,,
,3.471006,1.69E-09,,
,3.473006,1.70E-09,,
,3.475006,1.72E-09,,
,3.477006,1.73E-09,,
,3.479006,1.74E-09,,
,3.481006,1.75E-09,,
,3.483006,1.77E-09,,
,3.485006,1.78E-09,,
,3.487006,1.79E-09,,
,3.489006,1.80E-09,,
,3.491006,1.81E-09,,
,3.493006,1.82E-09,,
,3.495006,1.83E-09,,
,3.497006,1.84E-09,,
,3.499006,1.85E-09,,
,3.501006,1.86E-09,,
,3.503006,1.87E-09,,
,3.505006,1.87E-09,,
,3.507006,1.88E-09,,
,3.509006,1.89E-09,,
,3.511006,1.90E-09,,
,3.513006,1.90E-09,,
,3.515006,1.91E-09,,
,3.517006,1.91E-09,,
,3.519006,1.92E-09,,
,3.521006,1.92E-09,,
,3.523006,1.93E-09,,
,3.525006,1.93E-09,,
,3.527006,1.94E-09,,
,3.529006,1.94E-09,,
,3.531006,1.94E-09,,
,3.533006,1.94E-09,,
,3.535006,1.95E-09,,
,3.537006,1.95E-09,,
,3.539006,1.95E-09,,
,3.541006,1.95E-09,,
,3.543006,1.95E-09,,
,3.545006,1.95E-09,,
,3.547006,1.95E-09,,
,3.549006,1.95E-09,,
,3.551006,1.95E-09,,
,3.553006,1.94E-09,,
,3.555006,1.94E-09,,
,3.557006,1.94E-09,,
,3.559006,1.93E-09,,
,3.561006,1.93E-09,,
,3.563006,1.93E-09,,
,3.565006,1.92E-09,,
,3.567006,1.92E-09,,
,3.569006,1.91E-09,,
,3.571006,1.91E-09,,
,3.573006,1.90E-09,,
,3.575006,1.89E-09,,
,3.577006,1.89E-09,,
,3.579006,1.88E-09,,
,3.581006,1.87E-09,,
,3.583006,1.86E-09,,
,3.585006,1.86E-09,,
,3.587006,1.85E-09,,
,3.589006,1.84E-09,,
,3.591006,1.83E-09,,
,3.593006,1.82E-09,,
,3.595006,1.81E-09,,
,3.597006,1.80E-09,,
,3.599006,1.80E-09,,
,3.601006,1.79E-09,,
,3.603006,1.78E-09,,
,3.605006,1.77E-09,,
,3.607006,1.76E-09,,
,3.609006,1.75E-09,,
,3.611006,1.74E-09,,
,3.613006,1.73E-09,,
,3.615006,1.72E-09,,
,3.617006,1.71E-09,,
,3.619006,1.70E-09,,
,3.621006,1.69E-09,,
,3.623006,1.68E-09,,
,3.625006,1.67E-09,,
,3.627006,1.66E-09,,
,3.629006,1.65E-09,,
,3.631006,1.64E-09,,
,3.633006,1.63E-09,,
,3.635006,1.62E-09,,
,3.637006,1.61E-09,,
,3.639006,1.60E-09,,
,3.641006,1.59E-09,,
,3.643006,1.59E-09,,
,3.645006,1.58E-09,,
,3.647006,1.57E-09,,
,3.649006,1.56E-09,,
,3.651006,1.56E-09,,
,3.653006,1.55E-09,,
,3.655006,1.54E-09,,
,3.657006,1.54E-09,,
,3.659006,1.53E-09,,
,3.661006,1.52E-09,,
,3.663006,1.52E-09,,
,3.665006,1.51E-09,,
,3.667006,1.51E-09,,
,3.669006,1.50E-09,,
,3.671006,1.50E-09,,
,3.673006,1.50E-09,,
,3.675006,1.49E-09,,
,3.677006,1.49E-09,,
,3.679006,1.49E-09,,
,3.681006,1.48E-09,,
,3.683006,1.48E-09,,
,3.685006,1.48E-09,,
,3.687006,1.48E-09,,
,3.689006,1.48E-09,,
,3.691006,1.48E-09,,
,3.693006,1.48E-09,,
,3.695006,1.48E-09,,
,3.697006,1.48E-09,,
,3.699006,1.48E-09,,
,3.701006,1.48E-09,,
,3.703006,1.48E-09,,
,3.705006,1.49E-09,,
,3.707006,1.49E-09,,
,3.709006,1.49E-09,,
,3.711006,1.50E-09,,
,3.713006,1.50E-09,,
,3.715006,1.51E-09,,
,3.717006,1.51E-09,,
,3.719006,1.52E-09,,
,3.721006,1.52E-09,,
,3.723006,1.53E-09,,
,3.725006,1.54E-09,,
,3.727006,1.54E-09,,
,3.729006,1.55E-09,,
,3.731006,1.56E-09,,
,3.733006,1.56E-09,,
,3.735006,1.57E-09,,
,3.737006,1.58E-09,,
,3.739006,1.58E-09,,
,3.741006,1.59E-09,,
,3.743006,1.59E-09,,
,3.745006,1.60E-09,,
,3.747006,1.61E-09,,
,3.749006,1.61E-09,,
,3.751006,1.62E-09,,
,3.753006,1.62E-09,,
,3.755006,1.63E-09,,
,3.757006,1.63E-09,,
,3.759006,1.64E-09,,
,3.761006,1.64E-09,,
,3.763006,1.65E-09,,
,3.765006,1.65E-09,,
,3.767006,1.66E-09,,
,3.769006,1.66E-09,,
,3.771006,1.67E-09,,
,3.773006,1.67E-09,,
,3.775006,1.68E-09,,
,3.777006,1.68E-09,,
,3.779006,1.68E-09,,
,3.781006,1.69E-09,,
,3.783006,1.69E-09,,
,3.785006,1.69E-09,,
,3.787006,1.70E-09,,
,3.789006,1.70E-09,,
,3.791006,1.70E-09,,
,3.793006,1.71E-09,,
,3.795006,1.71E-09,,
,3.797006,1.71E-09,,
,3.799006,1.71E-09,,
,3.801006,1.71E-09,,
,3.803006,1.72E-09,,
,3.805006,1.72E-09,,
,3.807006,1.72E-09,,
,3.809006,1.72E-09,,
,3.811006,1.72E-09,,
,3.813006,1.72E-09,,
,3.815006,1.72E-09,,
,3.817006,1.72E-09,,
,3.819006,1.72E-09,,
,3.821006,1.73E-09,,
,3.823006,1.73E-09,,
,3.825006,1.73E-09,,
,3.827006,1.73E-09,,
,3.829006,1.73E-09,,
,3.831006,1.73E-09,,
,3.833006,1.73E-09,,
,3.835006,1.73E-09,,
,3.837006,1.73E-09,,
,3.839006,1.73E-09,,
,3.841006,1.73E-09,,
,3.843006,1.73E-09,,
,3.845006,1.73E-09,,
,3.847006,1.73E-09,,
,3.849006,1.73E-09,,
,3.851006,1.73E-09,,
,3.853006,1.73E-09,,
,3.855006,1.73E-09,,
,3.857006,1.73E-09,,
,3.859006,1.72E-09,,
,3.861006,1.72E-09,,
,3.863006,1.71E-09,,
,3.865006,1.71E-09,,
,3.867006,1.70E-09,,
,3.869006,1.69E-09,,
,3.871006,1.69E-09,,
,3.873006,1.68E-09,,
,3.875006,1.67E-09,,
,3.877006,1.66E-09,,
,3.879006,1.65E-09,,
,3.881006,1.63E-09,,
,3.883006,1.62E-09,,
,3.885006,1.61E-09,,
,3.887006,1.59E-09,,
,3.889006,1.57E-09,,
,3.891006,1.56E-09,,
,3.893006,1.54E-09,,
,3.895006,1.52E-09,,
,3.897006,1.50E-09,,
,3.899006,1.48E-09,,
,3.901006,1.46E-09,,
,3.903006,1.44E-09,,
,3.905006,1.42E-09,,
,3.907006,1.39E-09,,
,3.909006,1.37E-09,,
,3.911006,1.35E-09,,
,3.913006,1.32E-09,,
,3.915006,1.30E-09,,
,3.917006,1.27E-09,,
,3.919006,1.24E-09,,
,3.921006,1.22E-09,,
,3.923006,1.19E-09,,
,3.925006,1.16E-09,,
,3.927006,1.13E-09,,
,3.929006,1.10E-09,,
,3.931006,1.07E-09,,
,3.933006,1.05E-09,,
,3.935006,1.02E-09,,
,3.937006,9.88E-10,,
,3.939006,9.59E-10,,
,3.941006,9.29E-10,,
,3.943006,9.00E-10,,
,3.945006,8.71E-10,,
,3.947006,8.42E-10,,
,3.949006,8.14E-10,,
,3.951006,7.86E-10,,
,3.953006,7.58E-10,,
,3.955006,7.30E-10,,
,3.957006,7.03E-10,,
,3.959006,6.76E-10,,
,3.961006,6.50E-10,,
,3.963006,6.24E-10,,
,3.965006,5.99E-10,,
,3.967006,5.75E-10,,
,3.969006,5.51E-10,,
,3.971006,5.28E-10,,
,3.973006,5.05E-10,,
,3.975006,4.83E-10,,
,3.977006,4.61E-10,,
,3.979006,4.41E-10,,
,3.981006,4.22E-10,,
,3.983006,4.03E-10,,
,3.985006,3.85E-10,,
,3.987006,3.68E-10,,
,3.989006,3.51E-10,,
,3.991006,3.35E-10,,
,3.993006,3.20E-10,,
,3.995006,3.07E-10,,
,3.997006,2.94E-10,,
,3.999006,2.83E-10,,
,4.001006,2.72E-10,,
,4.003006,2.61E-10,,
,4.005006,2.52E-10,,
,4.007006,2.43E-10,,
,4.009006,2.35E-10,,
,4.011006,2.28E-10,,
,4.013006,2.21E-10,,
,4.015006,2.16E-10,,
,4.017006,2.11E-10,,
,4.019006,2.07E-10,,
,4.021006,2.03E-10,,
,4.023006,2.00E-10,,
,4.025006,1.98E-10,,
,4.027006,1.96E-10,,
,4.029006,1.96E-10,,
,4.031006,1.95E-10,,
,4.033006,1.95E-10,,
,4.035006,1.96E-10,,
,4.037006,1.97E-10,,
,4.039006,1.98E-10,,
,4.041006,1.99E-10,,
,4.043006,2.01E-10,,
,4.045006,2.03E-10,,
,4.047006,2.06E-10,,
,4.049006,2.09E-10,,
,4.051006,2.13E-10,,
,4.053006,2.16E-10,,
,4.055006,2.20E-10,,
,4.057006,2.23E-10,,
,4.059006,2.27E-10,,
,4.061006,2.32E-10,,
,4.063006,2.37E-10,,
,4.065006,2.42E-10,,
,4.067006,2.47E-10,,
,4.069006,2.52E-10,,
,4.071006,2.57E-10,,
,4.073006,2.62E-10,,
,4.075006,2.68E-10,,
,4.077006,2.74E-10,,
,4.079006,2.79E-10,,
,4.081006,2.85E-10,,
,4.083006,2.91E-10,,
,4.085006,2.98E-10,,
,4.087006,3.04E-10,,
,4.089006,3.10E-10,,
,4.091006,3.16E-10,,
,4.093006,3.22E-10,,
,4.095006,3.28E-10,,
,4.097006,3.35E-10,,
,4.099006,3.42E-10,,
,4.101006,3.48E-10,,
,4.103006,3.55E-10,,
,4.105006,3.61E-10,,
,4.107006,3.67E-10,,
,4.109006,3.73E-10,,
,4.111006,3.80E-10,,
,4.113006,3.86E-10,,
,4.115006,3.93E-10,,
,4.117006,3.99E-10,,
,4.119006,4.05E-10,,
,4.121006,4.11E-10,,
,4.123006,4.17E-10,,
,4.125006,4.22E-10,,
,4.127006,4.28E-10,,
,4.129006,4.34E-10,,
,4.131006,4.39E-10,,
,4.133006,4.45E-10,,
,4.135006,4.50E-10,,
,4.137006,4.55E-10,,
,4.139006,4.60E-10,,
,4.141006,4.64E-10,,
,4.143006,4.69E-10,,
,4.145006,4.74E-10,,
,4.147006,4.79E-10,,
,4.149006,4.84E-10,,
,4.151006,4.90E-10,,
,4.153006,4.94E-10,,
,4.155006,4.99E-10,,
,4.157006,5.03E-10,,
,4.159006,5.08E-10,,
,4.161006,5.12E-10,,
,4.163006,5.18E-10,,
,4.165006,5.22E-10,,
,4.167006,5.27E-10,,
,4.169006,5.32E-10,,
,4.171006,5.37E-10,,
,4.173006,5.41E-10,,
,4.175006,5.46E-10,,
,4.177006,5.50E-10,,
,4.179006,5.55E-10,,
,4.181006,5.60E-10,,
,4.183006,5.65E-10,,
,4.185006,5.69E-10,,
,4.187006,5.74E-10,,
,4.189006,5.78E-10,,
,4.191006,5.82E-10,,
,4.193006,5.85E-10,,
,4.195006,5.89E-10,,
,4.197006,5.93E-10,,
,4.199006,5.97E-10,,
,4.201006,6.01E-10,,
,4.203006,6.04E-10,,
,4.205006,6.06E-10,,
,4.207006,6.08E-10,,
,4.209006,6.11E-10,,
,4.211006,6.13E-10,,
,4.213006,6.15E-10,,
,4.215006,6.17E-10,,
,4.217006,6.19E-10,,
,4.219006,6.20E-10,,
,4.221006,6.22E-10,,
,4.223006,6.22E-10,,
,4.225006,6.23E-10,,
,4.227006,6.23E-10,,
,4.229006,6.23E-10,,
,4.231006,6.23E-10,,
,4.233006,6.23E-10,,
,4.235006,6.23E-10,,
,4.237006,6.22E-10,,
,4.239006,6.20E-10,,
,4.241006,6.19E-10,,
,4.243006,6.17E-10,,
,4.245006,6.15E-10,,
,4.247006,6.14E-10,,
,4.249006,6.11E-10,,
,4.251006,6.09E-10,,
,4.253006,6.07E-10,,
,4.255006,6.04E-10,,
,4.257006,6.00E-10,,
,4.259006,5.97E-10,,
,4.261006,5.93E-10,,
,4.263006,5.89E-10,,
,4.265006,5.86E-10,,
,4.267006,5.82E-10,,
,4.269006,5.78E-10,,
,4.271006,5.73E-10,,
,4.273006,5.68E-10,,
,4.275006,5.63E-10,,
,4.277006,5.58E-10,,
,4.279006,5.53E-10,,
,4.281006,5.48E-10,,
,4.283006,5.43E-10,,
,4.285006,5.38E-10,,
,4.287006,5.32E-10,,
,4.289006,5.27E-10,,
,4.291006,5.21E-10,,
,4.293006,5.15E-10,,
,4.295006,5.09E-10,,
,4.297006,5.03E-10,,
,4.299006,4.97E-10,,
,4.301006,4.92E-10,,
,4.303006,4.85E-10,,
,4.305006,4.79E-10,,
,4.307006,4.73E-10,,
,4.309006,4.66E-10,,
,4.311006,4.60E-10,,
,4.313006,4.54E-10,,
,4.315006,4.48E-10,,
,4.317006,4.42E-10,,
,4.319006,4.36E-10,,
,4.321006,4.30E-10,,
,4.323006,4.23E-10,,
,4.325006,4.17E-10,,
,4.327006,4.10E-10,,
,4.329006,4.04E-10,,
,4.331006,3.98E-10,,
,4.333006,3.92E-10,,
,4.335006,3.85E-10,,
,4.337006,3.79E-10,,
,4.339006,3.72E-10,,
,4.341006,3.65E-10,,
,4.343006,3.59E-10,,
,4.345006,3.52E-10,,
,4.347006,3.46E-10,,
,4.349006,3.39E-10,,
,4.351006,3.33E-10,,
,4.353006,3.26E-10,,
,4.355006,3.19E-10,,
,4.357006,3.12E-10,,
,4.359006,3.06E-10,,
,4.361006,2.99E-10,,
,4.363006,2.93E-10,,
,4.365006,2.86E-10,,
,4.367006,2.80E-10,,
,4.369006,2.73E-10,,
,4.371006,2.66E-10,,
,4.373006,2.59E-10,,
,4.375006,2.52E-10,,
,4.377006,2.46E-10,,
,4.379006,2.39E-10,,
,4.381006,2.33E-10,,
,4.383006,2.26E-10,,
,4.385006,2.20E-10,,
,4.387006,2.13E-10,,
,4.389006,2.07E-10,,
,4.391006,2.00E-10,,
,4.393006,1.93E-10,,
,4.395006,1.87E-10,,
,4.397006,1.80E-10,,
,4.399006,1.74E-10,,
,4.401006,1.68E-10,,
,4.403006,1.61E-10,,
,4.405006,1.54E-10,,
,4.407006,1.47E-10,,
,4.409006,1.41E-10,,
,4.411006,1.35E-10,,
,4.413006,1.29E-10,,
,4.415006,1.23E-10,,
,4.417006,1.17E-10,,
,4.419006,1.10E-10,,
,4.421006,1.04E-10,,
,4.423006,9.79E-11,,
,4.425006,9.20E-11,,
,4.427006,8.60E-11,,
,4.429006,8.03E-11,,
,4.431006,7.48E-11,,
,4.433006,6.98E-11,,
,4.435006,6.46E-11,,
,4.437006,5.97E-11,,
,4.439006,5.43E-11,,
,4.441006,4.94E-11,,
,4.443006,4.45E-11,,
,4.445006,4.04E-11,,
,4.447006,3.64E-11,,
,4.449006,3.25E-11,,
,4.451006,2.86E-11,,
,4.453006,2.47E-11,,
,4.455006,2.07E-11,,
,4.457006,1.68E-11,,
,4.459006,1.33E-11,,
,4.461006,9.85E-12,,
,4.463006,6.95E-12,,
,4.465006,4.38E-12,,
,4.467006,1.69E-12,,
,4.469006,-8.84E-13,,
,4.471006,-3.89E-12,,
,4.473006,-6.57E-12,,
,4.475006,-9.15E-12,,
,4.477006,-1.14E-11,,
,4.479006,-1.37E-11,,
,4.481006,-1.59E-11,,
,4.483006,-1.80E-11,,
,4.485006,-1.97E-11,,
,4.487006,-2.15E-11,,
,4.489006,-2.34E-11,,
,4.491006,-2.55E-11,,
,4.493006,-2.76E-11,,
,4.495006,-2.92E-11,,
,4.497006,-3.06E-11,,
,4.499006,-3.20E-11,,
,4.501006,-3.34E-11,,
,4.503006,-3.48E-11,,
,4.505006,-3.63E-11,,
,4.507006,-3.79E-11,,
,4.509006,-3.95E-11,,
,4.511006,-4.07E-11,,
,4.513006,-4.20E-11,,
,4.515006,-4.31E-11,,
,4.517006,-4.41E-11,,
,4.519006,-4.52E-11,,
,4.521006,-4.65E-11,,
,4.523006,-4.77E-11,,
,4.525006,-4.87E-11,,
,4.527006,-4.95E-11,,
,4.529006,-5.04E-11,,
,4.531006,-5.10E-11,,
,4.533006,-5.17E-11,,
,4.535006,-5.24E-11,,
,4.537006,-5.35E-11,,
,4.539006,-5.43E-11,,
,4.541006,-5.52E-11,,
,4.543006,-5.60E-11,,
,4.545006,-5.67E-11,,
,4.547006,-5.70E-11,,
,4.549006,-5.70E-11,,
,4.551006,-5.70E-11,,
,4.553006,-5.75E-11,,
,4.555006,-5.84E-11,,
,4.557006,-5.92E-11,,
,4.559006,-5.99E-11,,
,4.561006,-6.01E-11,,
,4.563006,-6.06E-11,,
,4.565006,-6.05E-11,,
,4.567006,-6.06E-11,,
,4.569006,-6.07E-11,,
,4.571006,-6.11E-11,,
,4.573006,-6.14E-11,,
,4.575006,-6.20E-11,,
,4.577006,-6.21E-11,,
,4.579006,-6.22E-11,,
,4.581006,-6.21E-11,,
,4.583006,-6.23E-11,,
,4.585006,-6.24E-11,,
,4.587006,-6.25E-11,,
,4.589006,-6.28E-11,,
,4.591006,-6.35E-11,,
,4.593006,-6.39E-11,,
,4.595006,-6.41E-11,,
,4.597006,-6.41E-11,,
,4.599006,-6.42E-11,,
,4.601006,-6.43E-11,,
,4.603006,-6.44E-11,,
,4.605006,-6.48E-11,,
,4.607006,-6.50E-11,,
,4.609006,-6.52E-11,,
,4.611006,-6.53E-11,,
,4.613006,-6.52E-11,,
,4.615006,-6.51E-11,,
,4.617006,-6.50E-11,,
,4.619006,-6.50E-11,,
,4.621006,-6.54E-11,,
,4.623006,-6.55E-11,,
,4.625006,-6.60E-11,,
,4.627006,-6.59E-11,,
,4.629006,-6.60E-11,,
,4.631006,-6.56E-11,,
,4.633006,-6.53E-11,,
,4.635006,-6.52E-11,,
,4.637006,-6.52E-11,,
,4.639006,-6.52E-11,,
,4.641006,-6.49E-11,,
,4.643006,-6.48E-11,,
,4.645006,-6.47E-11,,
,4.647006,-6.43E-11,,
,4.649006,-6.38E-11,,
,4.651006,-6.32E-11,,
,4.653006,-6.27E-11,,
,4.655006,-6.23E-11,,
,4.657006,-6.22E-11,,
,4.659006,-6.20E-11,,
,4.661006,-6.14E-11,,
,4.663006,-6.06E-11,,
,4.665006,-5.95E-11,,
,4.667006,-5.89E-11,,
,4.669006,-5.83E-11,,
,4.671006,-5.81E-11,,
,4.673006,-5.79E-11,,
,4.675006,-5.75E-11,,
,4.677006,-5.68E-11,,
,4.679006,-5.59E-11,,
,4.681006,-5.51E-11,,
,4.683006,-5.41E-11,,
,4.685006,-5.35E-11,,
,4.687006,-5.30E-11,,
,4.689006,-5.26E-11,,
,4.691006,-5.22E-11,,
,4.693006,-5.14E-11,,
,4.695006,-5.09E-11,,
,4.697006,-5.02E-11,,
,4.699006,-4.93E-11,,
,4.701006,-4.83E-11,,
,4.703006,-4.75E-11,,
,4.705006,-4.69E-11,,
,4.707006,-4.66E-11,,
,4.709006,-4.62E-11,,
,4.711006,-4.55E-11,,
,4.713006,-4.47E-11,,
,4.715006,-4.38E-11,,
,4.717006,-4.33E-11,,
,4.719006,-4.28E-11,,
,4.721006,-4.24E-11,,
,4.723006,-4.20E-11,,
,4.725006,-4.14E-11,,
,4.727006,-4.08E-11,,
,4.729006,-4.00E-11,,
,4.731006,-3.93E-11,,
,4.733006,-3.86E-11,,
,4.735006,-3.80E-11,,
,4.737006,-3.77E-11,,
,4.739006,-3.74E-11,,
,4.741006,-3.73E-11,,
,4.743006,-3.68E-11,,
,4.745006,-3.63E-11,,
,4.747006,-3.56E-11,,
,4.749006,-3.49E-11,,
,4.751006,-3.44E-11,,
,4.753006,-3.41E-11,,
,4.755006,-3.39E-11,,
,4.757006,-3.37E-11,,
,4.759006,-3.34E-11,,
,4.761006,-3.31E-11,,
,4.763006,-3.27E-11,,
,4.765006,-3.21E-11,,
,4.767006,-3.15E-11,,
,4.769006,-3.11E-11,,
,4.771006,-3.09E-11,,
,4.773006,-3.09E-11,,
,4.775006,-3.11E-11,,
,4.777006,-3.07E-11,,
,4.779006,-3.04E-11,,
,4.781006,-2.98E-11,,
,4.783006,-2.95E-11,,
,4.785006,-2.92E-11,,
,4.787006,-2.95E-11,,
,4.789006,-2.99E-11,,
,4.791006,-3.01E-11,,
,4.793006,-2.99E-11,,
,4.795006,-2.95E-11,,
,4.797006,-2.93E-11,,
,4.799006,-2.91E-11,,
,4.801006,-2.89E-11,,
,4.803006,-2.88E-11,,
,4.805006,-2.90E-11,,
,4.807006,-2.93E-11,,
,4.809006,-2.97E-11,,
,4.811006,-2.97E-11,,
,4.813006,-2.94E-11,,
,4.815006,-2.93E-11,,
,4.817006,-2.93E-11,,
,4.819006,-2.95E-11,,
,4.821006,-2.98E-11,,
,4.823006,-3.03E-11,,
,4.825006,-3.08E-11,,
,4.827006,-3.11E-11,,
,4.829006,-3.08E-11,,
,4.831006,-3.07E-11,,
,4.833006,-3.08E-11,,
,4.835006,-3.11E-11,,
,4.837006,-3.14E-11,,
,4.839006,-3.17E-11,,
,4.841006,-3.22E-11,,
,4.843006,-3.27E-11,,
,4.845006,-3.31E-11,,
,4.847006,-3.35E-11,,
,4.849006,-3.35E-11,,
,4.851006,-3.35E-11,,
,4.853006,-3.35E-11,,
,4.855006,-3.41E-11,,
,4.857006,-3.48E-11,,
,4.859006,-3.53E-11,,
,4.861006,-3.57E-11,,
,4.863006,-3.57E-11,,
,4.865006,-3.57E-11,,
,4.867006,-3.58E-11,,
,4.869006,-3.61E-11,,
,4.871006,-3.64E-11,,
,4.873006,-3.70E-11,,
,4.875006,-3.73E-11,,
,4.877006,-3.77E-11,,
,4.879006,-3.76E-11,,
,4.881006,-3.75E-11,,
,4.883006,-3.73E-11,,
,4.885006,-3.73E-11,,
,4.887006,-3.75E-11,,
,4.889006,-3.80E-11,,
,4.891006,-3.82E-11,,
,4.893006,-3.85E-11,,
,4.895006,-3.86E-11,,
,4.897006,-3.86E-11,,
,4.899006,-3.82E-11,,
,4.901006,-3.79E-11,,
,4.903006,-3.81E-11,,
,4.905006,-3.86E-11,,
,4.907006,-3.86E-11,,
,4.909006,-3.86E-11,,
,4.911006,-3.85E-11,,
,4.913006,-3.85E-11,,
,4.915006,-3.80E-11,,
,4.917006,-3.76E-11,,
,4.919006,-3.74E-11,,
,4.921006,-3.75E-11,,
,4.923006,-3.77E-11,,
,4.925006,-3.79E-11,,
,4.927006,-3.79E-11,,
,4.929006,-3.76E-11,,
,4.931006,-3.70E-11,,
,4.933006,-3.65E-11,,
,4.935006,-3.63E-11,,
,4.937006,-3.62E-11,,
,4.939006,-3.61E-11,,
,4.941006,-3.59E-11,,
,4.943006,-3.57E-11,,
,4.945006,-3.52E-11,,
,4.947006,-3.48E-11,,
,4.949006,-3.43E-11,,
,4.951006,-3.39E-11,,
,4.953006,-3.37E-11,,
,4.955006,-3.37E-11,,
,4.957006,-3.34E-11,,
,4.959006,-3.31E-11,,
,4.961006,-3.24E-11,,
,4.963006,-3.19E-11,,
,4.965006,-3.12E-11,,
,4.967006,-3.06E-11,,
,4.969006,-3.00E-11,,
,4.971006,-2.95E-11,,
,4.973006,-2.91E-11,,
,4.975006,-2.87E-11,,
,4.977006,-2.83E-11,,
,4.979006,-2.76E-11,,
,4.981006,-2.69E-11,,
,4.983006,-2.59E-11,,
,4.985006,-2.50E-11,,
,4.987006,-2.45E-11,,
,4.989006,-2.43E-11,,
,4.991006,-2.39E-11,,
,4.993006,-2.33E-11,,
,4.995006,-2.22E-11,,
,4.997006,-2.14E-11,,
,4.999006,-2.04E-11,,
,5.001006,-1.97E-11,,
,5.003006,-1.89E-11,,
,5.005006,-1.85E-11,,
,5.007006,-1.83E-11,,
,5.009006,-1.80E-11,,
,5.011006,-1.74E-11,,
,5.013006,-1.66E-11,,
,5.015006,-1.57E-11,,
,5.017006,-1.49E-11,,
,5.019006,-1.44E-11,,
,5.021006,-1.41E-11,,
,5.023006,-1.40E-11,,
,5.025006,-1.37E-11,,
,5.027006,-1.33E-11,,
,5.029006,-1.27E-11,,
,5.031006,-1.23E-11,,
,5.033006,-1.15E-11,,
,5.035006,-1.07E-11,,
,5.037006,-1.00E-11,,
,5.039006,-9.69E-12,,
,5.041006,-9.58E-12,,
,5.043006,-9.26E-12,,
,5.045006,-8.94E-12,,
,5.047006,-8.51E-12,,
,5.049006,-8.29E-12,,
,5.051006,-8.08E-12,,
,5.053006,-7.75E-12,,
,5.055006,-7.65E-12,,
,5.057006,-7.43E-12,,
,5.059006,-7.33E-12,,
,5.061006,-6.90E-12,,
,5.063006,-6.57E-12,,
,5.065006,-6.04E-12,,
,5.067006,-5.61E-12,,
,5.069006,-5.07E-12,,
,5.071006,-5.07E-12,,
,5.073006,-4.86E-12,,
,5.075006,-4.96E-12,,
,5.077006,-4.64E-12,,
,5.079006,-4.43E-12,,
,5.081006,-4.00E-12,,
,5.083006,-3.89E-12,,
,5.085006,-3.57E-12,,
,5.087006,-3.35E-12,,
,5.089006,-3.25E-12,,
,5.091006,-3.25E-12,,
,5.093006,-3.14E-12,,
,5.095006,-2.60E-12,,
,5.097006,-2.07E-12,,
,5.099006,-1.53E-12,,
,5.101006,-1.10E-12,,
,5.103006,-8.84E-13,,
,5.105006,-5.62E-13,,
,5.107006,-3.47E-13,,
,5.109006,-1.33E-13,,
,5.111006,1.89E-13,,
,5.113006,6.19E-13,,
,5.115006,1.26E-12,,
,5.117006,2.01E-12,,
,5.119006,2.44E-12,,
,5.121006,2.77E-12,,
,5.123006,2.77E-12,,
,5.125006,2.87E-12,,
,5.127006,3.09E-12,,
,5.129006,3.52E-12,,
,5.131006,4.27E-12,,
,5.133006,5.13E-12,,
,5.135006,5.77E-12,,
,5.137006,6.31E-12,,
,5.139006,6.63E-12,,
,5.141006,6.74E-12,,
,5.143006,7.06E-12,,
,5.145006,7.49E-12,,
,5.147006,8.35E-12,,
,5.149006,8.99E-12,,
,5.151006,9.74E-12,,
,5.153006,1.02E-11,,
,5.155006,1.08E-11,,
,5.157006,1.08E-11,,
,5.159006,1.10E-11,,
,5.161006,1.11E-11,,
,5.163006,1.18E-11,,
,5.165006,1.24E-11,,
,5.167006,1.30E-11,,
,5.169006,1.35E-11,,
,5.171006,1.38E-11,,
,5.173006,1.40E-11,,
,5.175006,1.41E-11,,
,5.177006,1.45E-11,,
,5.179006,1.49E-11,,
,5.181006,1.55E-11,,
,5.183006,1.61E-11,,
,5.185006,1.66E-11,,
,5.187006,1.67E-11,,
,5.189006,1.67E-11,,
,5.191006,1.66E-11,,
,5.193006,1.70E-11,,
,5.195006,1.75E-11,,
,5.197006,1.80E-11,,
,5.199006,1.83E-11,,
,5.201006,1.88E-11,,
,5.203006,1.92E-11,,
,5.205006,1.94E-11,,
,5.207006,1.93E-11,,
,5.209006,1.95E-11,,
,5.211006,1.99E-11,,
,5.213006,2.05E-11,,
,5.215006,2.08E-11,,
,5.217006,2.10E-11,,
,5.219006,2.13E-11,,
,5.221006,2.14E-11,,
,5.223006,2.16E-11,,
,5.225006,2.17E-11,,
,5.227006,2.19E-11,,
,5.229006,2.23E-11,,
,5.231006,2.29E-11,,
,5.233006,2.36E-11,,
,5.235006,2.40E-11,,
,5.237006,2.43E-11,,
,5.239006,2.47E-11,,
,5.241006,2.47E-11,,
,5.243006,2.47E-11,,
,5.245006,2.49E-11,,
,5.247006,2.56E-11,,
,5.249006,2.63E-11,,
,5.251006,2.70E-11,,
,5.253006,2.74E-11,,
,5.255006,2.79E-11,,
,5.257006,2.80E-11,,
,5.259006,2.84E-11,,
,5.261006,2.90E-11,,
,5.263006,2.95E-11,,
,5.265006,3.01E-11,,
,5.267006,3.06E-11,,
,5.269006,3.10E-11,,
,5.271006,3.12E-11,,
,5.273006,3.15E-11,,
,5.275006,3.19E-11,,
,5.277006,3.23E-11,,
,5.279006,3.28E-11,,
,5.281006,3.37E-11,,
,5.283006,3.44E-11,,
,5.285006,3.51E-11,,
,5.287006,3.51E-11,,
,5.289006,3.52E-11,,
,5.291006,3.52E-11,,
,5.293006,3.58E-11,,
,5.295006,3.65E-11,,
,5.297006,3.70E-11,,
,5.299006,3.75E-11,,
,5.301006,3.83E-11,,
,5.303006,3.91E-11,,
,5.305006,3.96E-11,,
,5.307006,3.96E-11,,
,5.309006,3.97E-11,,
,5.311006,4.01E-11,,
,5.313006,4.07E-11,,
,5.315006,4.14E-11,,
,5.317006,4.20E-11,,
,5.319006,4.25E-11,,
,5.321006,4.29E-11,,
,5.323006,4.30E-11,,
,5.325006,4.33E-11,,
,5.327006,4.36E-11,,
,5.329006,4.40E-11,,
,5.331006,4.47E-11,,
,5.333006,4.54E-11,,
,5.335006,4.61E-11,,
,5.337006,4.66E-11,,
,5.339006,4.69E-11,,
,5.341006,4.71E-11,,
,5.343006,4.72E-11,,
,5.345006,4.75E-11,,
,5.347006,4.82E-11,,
,5.349006,4.89E-11,,
,5.351006,4.97E-11,,
,5.353006,4.99E-11,,
,5.355006,5.00E-11,,
,5.357006,5.01E-11,,
,5.359006,5.03E-11,,
,5.361006,5.05E-11,,
,5.363006,5.08E-11,,
,5.365006,5.13E-11,,
,5.367006,5.19E-11,,
,5.369006,5.24E-11,,
,5.371006,5.25E-11,,
,5.373006,5.25E-11,,
,5.375006,5.27E-11,,
,5.377006,5.30E-11,,
,5.379006,5.33E-11,,
,5.381006,5.37E-11,,
,5.383006,5.39E-11,,
,5.385006,5.44E-11,,
,5.387006,5.46E-11,,
,5.389006,5.49E-11,,
,5.391006,5.48E-11,,
,5.393006,5.48E-11,,
,5.395006,5.49E-11,,
,5.397006,5.52E-11,,
,5.399006,5.58E-11,,
,5.401006,5.63E-11,,
,5.403006,5.68E-11,,
,5.405006,5.67E-11,,
,5.407006,5.64E-11,,
,5.409006,5.64E-11,,
,5.411006,5.67E-11,,
,5.413006,5.71E-11,,
,5.415006,5.75E-11,,
,5.417006,5.78E-11,,
,5.419006,5.77E-11,,
,5.421006,5.75E-11,,
,5.423006,5.74E-11,,
,5.425006,5.75E-11,,
,5.427006,5.75E-11,,
,5.429006,5.76E-11,,
,5.431006,5.78E-11,,
,5.433006,5.84E-11,,
,5.435006,5.86E-11,,
,5.437006,5.88E-11,,
,5.439006,5.85E-11,,
,5.441006,5.84E-11,,
,5.443006,5.82E-11,,
,5.445006,5.83E-11,,
,5.447006,5.84E-11,,
,5.449006,5.85E-11,,
,5.451006,5.85E-11,,
,5.453006,5.84E-11,,
,5.455006,5.81E-11,,
,5.457006,5.77E-11,,
,5.459006,5.73E-11,,
,5.461006,5.74E-11,,
,5.463006,5.75E-11,,
,5.465006,5.78E-11,,
,5.467006,5.78E-11,,
,5.469006,5.79E-11,,
,5.471006,5.78E-11,,
,5.473006,5.73E-11,,
,5.475006,5.66E-11,,
,5.477006,5.62E-11,,
,5.479006,5.63E-11,,
,5.481006,5.64E-11,,
,5.483006,5.63E-11,,
,5.485006,5.60E-11,,
,5.487006,5.58E-11,,
,5.489006,5.54E-11,,
,5.491006,5.53E-11,,
,5.493006,5.50E-11,,
,5.495006,5.49E-11,,
,5.497006,5.49E-11,,
,5.499006,5.48E-11,,
,5.501006,5.49E-11,,
,5.503006,5.48E-11,,
,5.505006,5.45E-11,,
,5.507006,5.42E-11,,
,5.509006,5.39E-11,,
,5.511006,5.40E-11,,
,5.513006,5.39E-11,,
,5.515006,5.40E-11,,
,5.517006,5.42E-11,,
,5.519006,5.44E-11,,
,5.521006,5.45E-11,,
,5.523006,5.42E-11,,
,5.525006,5.42E-11,,
,5.527006,5.41E-11,,
,5.529006,5.43E-11,,
,5.531006,5.44E-11,,
,5.533006,5.45E-11,,
,5.535006,5.48E-11,,
,5.537006,5.49E-11,,
,5.539006,5.47E-11,,
,5.541006,5.45E-11,,
,5.543006,5.44E-11,,
,5.545006,5.46E-11,,
,5.547006,5.46E-11,,
,5.549006,5.48E-11,,
,5.551006,5.53E-11,,
,5.553006,5.56E-11,,
,5.555006,5.55E-11,,
,5.557006,5.50E-11,,
,5.559006,5.48E-11,,
,5.561006,5.50E-11,,
,5.563006,5.52E-11,,
,5.565006,5.54E-11,,
,5.567006,5.55E-11,,
,5.569006,5.54E-11,,
,5.571006,5.53E-11,,
,5.573006,5.45E-11,,
,5.575006,5.44E-11,,
,5.577006,5.42E-11,,
,5.579006,5.45E-11,,
,5.581006,5.46E-11,,
,5.583006,5.46E-11,,
,5.585006,5.45E-11,,
,5.587006,5.41E-11,,
,5.589006,5.37E-11,,
,5.591006,5.30E-11,,
,5.593006,5.27E-11,,
,5.595006,5.25E-11,,
,5.597006,5.26E-11,,
,5.599006,5.25E-11,,
,5.601006,5.21E-11,,
,5.603006,5.16E-11,,
,5.605006,5.10E-11,,
,5.607006,5.04E-11,,
,5.609006,5.00E-11,,
,5.611006,4.98E-11,,
,5.613006,4.96E-11,,
,5.615006,4.94E-11,,
,5.617006,4.91E-11,,
,5.619006,4.86E-11,,
,5.621006,4.80E-11,,
,5.623006,4.71E-11,,
,5.625006,4.64E-11,,
,5.627006,4.55E-11,,
,5.629006,4.51E-11,,
,5.631006,4.46E-11,,
,5.633006,4.44E-11,,
,5.635006,4.38E-11,,
,5.637006,4.31E-11,,
,5.639006,4.23E-11,,
,5.641006,4.16E-11,,
,5.643006,4.10E-11,,
,5.645006,4.03E-11,,
,5.647006,3.97E-11,,
,5.649006,3.93E-11,,
,5.651006,3.88E-11,,
,5.653006,3.82E-11,,
,5.655006,3.71E-11,,
,5.657006,3.64E-11,,
,5.659006,3.56E-11,,
,5.661006,3.51E-11,,
,5.663006,3.44E-11,,
,5.665006,3.40E-11,,
,5.667006,3.37E-11,,
,5.669006,3.31E-11,,
,5.671006,3.26E-11,,
,5.673006,3.20E-11,,
,5.675006,3.15E-11,,
,5.677006,3.11E-11,,
,5.679006,3.06E-11,,
,5.681006,3.02E-11,,
,5.683006,2.99E-11,,
,5.685006,2.97E-11,,
,5.687006,2.93E-11,,
,5.689006,2.87E-11,,
,5.691006,2.84E-11,,
,5.693006,2.79E-11,,
,5.695006,2.78E-11,,
,5.697006,2.76E-11,,
,5.699006,2.78E-11,,
,5.701006,2.79E-11,,
,5.703006,2.79E-11,,
,5.705006,2.76E-11,,
,5.707006,2.72E-11,,
,5.709006,2.69E-11,,
,5.711006,2.68E-11,,
,5.713006,2.67E-11,,
,5.715006,2.68E-11,,
,5.717006,2.69E-11,,
,5.719006,2.68E-11,,
,5.721006,2.64E-11,,
,5.723006,2.60E-11,,
,5.725006,2.55E-11,,
,5.727006,2.54E-11,,
,5.729006,2.53E-11,,
,5.731006,2.56E-11,,
,5.733006,2.58E-11,,
,5.735006,2.62E-11,,
,5.737006,2.61E-11,,
,5.739006,2.60E-11,,
,5.741006,2.56E-11,,
,5.743006,2.54E-11,,
,5.745006,2.53E-11,,
,5.747006,2.53E-11,,
,5.749006,2.54E-11,,
,5.751006,2.56E-11,,
,5.753006,2.55E-11,,
,5.755006,2.54E-11,,
,5.757006,2.50E-11,,
,5.759006,2.48E-11,,
,5.761006,2.46E-11,,
,5.763006,2.47E-11,,
,5.765006,2.49E-11,,
,5.767006,2.50E-11,,
,5.769006,2.50E-11,,
,5.771006,2.51E-11,,
,5.773006,2.49E-11,,
,5.775006,2.47E-11,,
,5.777006,2.45E-11,,
,5.779006,2.45E-11,,
,5.781006,2.48E-11,,
,5.783006,2.49E-11,,
,5.785006,2.53E-11,,
,5.787006,2.50E-11,,
,5.789006,2.48E-11,,
,5.791006,2.41E-11,,
,5.793006,2.40E-11,,
,5.795006,2.41E-11,,
,5.797006,2.45E-11,,
,5.799006,2.47E-11,,
,5.801006,2.48E-11,,
,5.803006,2.48E-11,,
,5.805006,2.46E-11,,
,5.807006,2.41E-11,,
,5.809006,2.40E-11,,
,5.811006,2.40E-11,,
,5.813006,2.40E-11,,
,5.815006,2.39E-11,,
,5.817006,2.38E-11,,
,5.819006,2.40E-11,,
,5.821006,2.37E-11,,
,5.823006,2.36E-11,,
,5.825006,2.32E-11,,
,5.827006,2.31E-11,,
,5.829006,2.28E-11,,
,5.831006,2.29E-11,,
,5.833006,2.32E-11,,
,5.835006,2.32E-11,,
,5.837006,2.28E-11,,
,5.839006,2.22E-11,,
,5.841006,2.18E-11,,
,5.843006,2.14E-11,,
,5.845006,2.12E-11,,
,5.847006,2.11E-11,,
,5.849006,2.08E-11,,
,5.851006,2.08E-11,,
,5.853006,2.06E-11,,
,5.855006,2.02E-11,,
,5.857006,1.93E-11,,
,5.859006,1.85E-11,,
,5.861006,1.79E-11,,
,5.863006,1.75E-11,,
,5.865006,1.72E-11,,
,5.867006,1.72E-11,,
,5.869006,1.70E-11,,
,5.871006,1.65E-11,,
,5.873006,1.55E-11,,
,5.875006,1.48E-11,,
,5.877006,1.43E-11,,
,5.879006,1.39E-11,,
,5.881006,1.35E-11,,
,5.883006,1.31E-11,,
,5.885006,1.25E-11,,
,5.887006,1.19E-11,,
,5.889006,1.10E-11,,
,5.891006,1.03E-11,,
,5.893006,9.53E-12,,
,5.895006,8.99E-12,,
,5.897006,8.46E-12,,
,5.899006,8.03E-12,,
,5.901006,7.60E-12,,
,5.903006,7.17E-12,,
,5.905006,6.52E-12,,
,5.907006,5.66E-12,,
,5.909006,4.70E-12,,
,5.911006,3.95E-12,,
,5.913006,3.20E-12,,
,5.915006,2.77E-12,,
,5.917006,2.12E-12,,
,5.919006,1.48E-12,,
,5.921006,6.19E-13,,
,5.923006,-2.53E-14,,
,5.925006,-7.77E-13,,
,5.927006,-1.64E-12,,
,5.929006,-2.28E-12,,
,5.931006,-2.60E-12,,
,5.933006,-2.82E-12,,
,5.935006,-3.35E-12,,
,5.937006,-3.89E-12,,
,5.939006,-4.64E-12,,
,5.941006,-5.50E-12,,
,5.943006,-6.25E-12,,
,5.945006,-6.90E-12,,
,5.947006,-7.22E-12,,
,5.949006,-7.97E-12,,
,5.951006,-8.40E-12,,
,5.953006,-9.04E-12,,
,5.955006,-9.47E-12,,
,5.957006,-1.01E-11,,
,5.959006,-1.09E-11,,
,5.961006,-1.14E-11,,
,5.963006,-1.18E-11,,
,5.965006,-1.22E-11,,
,5.967006,-1.27E-11,,
,5.969006,-1.32E-11,,
,5.971006,-1.40E-11,,
,5.973006,-1.49E-11,,
,5.975006,-1.58E-11,,
,5.977006,-1.67E-11,,
,5.979006,-1.73E-11,,
,5.981006,-1.82E-11,,
,5.983006,-1.87E-11,,
,5.985006,-1.91E-11,,
,5.987006,-1.99E-11,,
,5.989006,-2.09E-11,,
,5.991006,-2.21E-11,,
,5.993006,-2.32E-11,,
,5.995006,-2.41E-11,,
,5.997006,-2.49E-11,,
,5.999006,-2.56E-11,,
,6.001006,-2.65E-11,,
,6.003006,-2.74E-11,,
,6.005006,-2.87E-11,,
,6.007006,-2.98E-11,,
,6.009006,-3.08E-11,,
,6.011006,-3.17E-11,,
,6.013006,-3.26E-11,,
,6.015006,-3.33E-11,,
,6.017006,-3.41E-11,,
,6.019006,-3.50E-11,,
,6.021006,-3.64E-11,,
,6.023006,-3.78E-11,,
,6.025006,-3.91E-11,,
,6.027006,-4.02E-11,,
,6.029006,-4.14E-11,,
,6.031006,-4.23E-11,,
,6.033006,-4.31E-11,,
,6.035006,-4.38E-11,,
,6.037006,-4.51E-11,,
,6.039006,-4.64E-11,,
,6.041006,-4.79E-11,,
,6.043006,-4.91E-11,,
,6.045006,-5.04E-11,,
,6.047006,-5.12E-11,,
,6.049006,-5.22E-11,,
,6.051006,-5.31E-11,,
,6.053006,-5.41E-11,,
,6.055006,-5.53E-11,,
,6.057006,-5.68E-11,,
,6.059006,-5.84E-11,,
,6.061006,-5.98E-11,,
,6.063006,-6.11E-11,,
,6.065006,-6.21E-11,,
,6.067006,-6.32E-11,,
,6.069006,-6.43E-11,,
,6.071006,-6.56E-11,,
,6.073006,-6.72E-11,,
,6.075006,-6.86E-11,,
,6.077006,-7.03E-11,,
,6.079006,-7.17E-11,,
,6.081006,-7.31E-11,,
,6.083006,-7.42E-11,,
,6.085006,-7.53E-11,,
,6.087006,-7.67E-11,,
,6.089006,-7.84E-11,,
,6.091006,-8.03E-11,,
,6.093006,-8.20E-11,,
,6.095006,-8.35E-11,,
,6.097006,-8.47E-11,,
,6.099006,-8.60E-11,,
,6.101006,-8.73E-11,,
,6.103006,-8.91E-11,,
,6.105006,-9.10E-11,,
,6.107006,-9.28E-11,,
,6.109006,-9.44E-11,,
,6.111006,-9.60E-11,,
,6.113006,-9.75E-11,,
,6.115006,-9.88E-11,,
,6.117006,-9.99E-11,,
,6.119006,-1.01E-10,,
,6.121006,-1.03E-10,,
,6.123006,-1.05E-10,,
,6.125006,-1.06E-10,,
,6.127006,-1.08E-10,,
,6.129006,-1.09E-10,,
,6.131006,-1.11E-10,,
,6.133006,-1.12E-10,,
,6.135006,-1.13E-10,,
,6.137006,-1.15E-10,,
,6.139006,-1.16E-10,,
,6.141006,-1.18E-10,,
,6.143006,-1.19E-10,,
,6.145006,-1.20E-10,,
,6.147006,-1.22E-10,,
,6.149006,-1.23E-10,,
,6.151006,-1.24E-10,,
,6.153006,-1.25E-10,,
,6.155006,-1.27E-10,,
,6.157006,-1.28E-10,,
,6.159006,-1.30E-10,,
,6.161006,-1.31E-10,,
,6.163006,-1.32E-10,,
,6.165006,-1.33E-10,,
,6.167006,-1.34E-10,,
,6.169006,-1.35E-10,,
,6.171006,-1.36E-10,,
,6.173006,-1.38E-10,,
,6.175006,-1.40E-10,,
,6.177006,-1.41E-10,,
,6.179006,-1.42E-10,,
,6.181006,-1.43E-10,,
,6.183006,-1.44E-10,,
,6.185006,-1.45E-10,,
,6.187006,-1.46E-10,,
,6.189006,-1.48E-10,,
,6.191006,-1.49E-10,,
,6.193006,-1.50E-10,,
,6.195006,-1.51E-10,,
,6.197006,-1.52E-10,,
,6.199006,-1.53E-10,,
,6.201006,-1.54E-10,,
,6.203006,-1.55E-10,,
,6.205006,-1.56E-10,,
,6.207006,-1.57E-10,,
,6.209006,-1.58E-10,,
,6.211006,-1.59E-10,,
,6.213006,-1.60E-10,,
,6.215006,-1.61E-10,,
,6.217006,-1.61E-10,,
,6.219006,-1.62E-10,,
,6.221006,-1.64E-10,,
,6.223006,-1.65E-10,,
,6.225006,-1.66E-10,,
,6.227006,-1.67E-10,,
,6.229006,-1.68E-10,,
,6.231006,-1.69E-10,,
,6.233006,-1.69E-10,,
,6.235006,-1.70E-10,,
,6.237006,-1.71E-10,,
,6.239006,-1.73E-10,,
,6.241006,-1.74E-10,,
,6.243006,-1.76E-10,,
,6.245006,-1.77E-10,,
,6.247006,-1.77E-10,,
,6.249006,-1.78E-10,,
,6.251006,-1.79E-10,,
,6.253006,-1.80E-10,,
,6.255006,-1.82E-10,,
,6.257006,-1.84E-10,,
,6.259006,-1.85E-10,,
,6.261006,-1.86E-10,,
,6.263006,-1.87E-10,,
,6.265006,-1.88E-10,,
,6.267006,-1.89E-10,,
,6.269006,-1.91E-10,,
,6.271006,-1.92E-10,,
,6.273006,-1.93E-10,,
,6.275006,-1.95E-10,,
,6.277006,-1.96E-10,,
,6.279006,-1.97E-10,,
,6.281006,-1.98E-10,,
,6.283006,-1.99E-10,,
,6.285006,-2.01E-10,,
,6.287006,-2.02E-10,,
,6.289006,-2.04E-10,,
,6.291006,-2.06E-10,,
,6.293006,-2.07E-10,,
,6.295006,-2.09E-10,,
,6.297006,-2.10E-10,,
,6.299006,-2.12E-10,,
,6.301006,-2.13E-10,,
,6.303006,-2.14E-10,,
,6.305006,-2.16E-10,,
,6.307006,-2.18E-10,,
,6.309006,-2.20E-10,,
,6.311006,-2.22E-10,,
,6.313006,-2.23E-10,,
,6.315006,-2.25E-10,,
,6.317006,-2.27E-10,,
,6.319006,-2.29E-10,,
,6.321006,-2.31E-10,,
,6.323006,-2.33E-10,,
,6.325006,-2.36E-10,,
,6.327006,-2.38E-10,,
,6.329006,-2.40E-10,,
,6.331006,-2.43E-10,,
,6.333006,-2.45E-10,,
,6.335006,-2.47E-10,,
,6.337006,-2.49E-10,,
,6.339006,-2.52E-10,,
,6.341006,-2.55E-10,,
,6.343006,-2.58E-10,,
,6.345006,-2.61E-10,,
,6.347006,-2.64E-10,,
,6.349006,-2.67E-10,,
,6.351006,-2.70E-10,,
,6.353006,-2.74E-10,,
,6.355006,-2.77E-10,,
,6.357006,-2.81E-10,,
,6.359006,-2.84E-10,,
,6.361006,-2.88E-10,,
,6.363006,-2.92E-10,,
,6.365006,-2.96E-10,,
,6.367006,-3.00E-10,,
,6.369006,-3.04E-10,,
,6.371006,-3.08E-10,,
,6.373006,-3.13E-10,,
,6.375006,-3.18E-10,,
,6.377006,-3.23E-10,,
,6.379006,-3.27E-10,,
,6.381006,-3.32E-10,,
,6.383006,-3.36E-10,,
,6.385006,-3.41E-10,,
,6.387006,-3.46E-10,,
,6.389006,-3.52E-10,,
,6.391006,-3.57E-10,,
,6.393006,-3.62E-10,,
,6.395006,-3.67E-10,,
,6.397006,-3.72E-10,,
,6.399006,-3.77E-10,,
,6.401006,-3.82E-10,,
,6.403006,-3.87E-10,,
,6.405006,-3.93E-10,,
,6.407006,-3.98E-10,,
,6.409006,-4.04E-10,,
,6.411006,-4.09E-10,,
,6.413006,-4.15E-10,,
,6.415006,-4.20E-10,,
,6.417006,-4.25E-10,,
,6.419006,-4.30E-10,,
,6.421006,-4.36E-10,,
,6.423006,-4.42E-10,,
,6.425006,-4.47E-10,,
,6.427006,-4.53E-10,,
,6.429006,-4.58E-10,,
,6.431006,-4.63E-10,,
,6.433006,-4.69E-10,,
,6.435006,-4.74E-10,,
,6.437006,-4.79E-10,,
,6.439006,-4.85E-10,,
,6.441006,-4.91E-10,,
,6.443006,-4.96E-10,,
,6.445006,-5.02E-10,,
,6.447006,-5.07E-10,,
,6.449006,-5.12E-10,,
,6.451006,-5.17E-10,,
,6.453006,-5.23E-10,,
,6.455006,-5.28E-10,,
,6.457006,-5.34E-10,,
,6.459006,-5.39E-10,,
,6.461006,-5.44E-10,,
,6.463006,-5.49E-10,,
,6.465006,-5.53E-10,,
,6.467006,-5.58E-10,,
,6.469006,-5.63E-10,,
,6.471006,-5.68E-10,,
,6.473006,-5.74E-10,,
,6.475006,-5.79E-10,,
,6.477006,-5.84E-10,,
,6.479006,-5.88E-10,,
,6.481006,-5.93E-10,,
,6.483006,-5.97E-10,,
,6.485006,-6.02E-10,,
,6.487006,-6.07E-10,,
,6.489006,-6.12E-10,,
,6.491006,-6.17E-10,,
,6.493006,-6.21E-10,,
,6.495006,-6.26E-10,,
,6.497006,-6.31E-10,,
,6.499006,-6.35E-10,,
,6.501006,-6.39E-10,,
,6.503006,-6.44E-10,,
,6.505006,-6.48E-10,,
,6.507006,-6.53E-10,,
,6.509006,-6.57E-10,,
,6.511006,-6.61E-10,,
,6.513006,-6.66E-10,,
,6.515006,-6.70E-10,,
,6.517006,-6.74E-10,,
,6.519006,-6.78E-10,,
,6.521006,-6.82E-10,,
,6.523006,-6.87E-10,,
,6.525006,-6.91E-10,,
,6.527006,-6.95E-10,,
,6.529006,-6.99E-10,,
,6.531006,-7.02E-10,,
,6.533006,-7.06E-10,,
,6.535006,-7.09E-10,,
,6.537006,-7.12E-10,,
,6.539006,-7.16E-10,,
,6.541006,-7.19E-10,,
,6.543006,-7.23E-10,,
,6.545006,-7.26E-10,,
,6.547006,-7.29E-10,,
,6.549006,-7.32E-10,,
,6.551006,-7.35E-10,,
,6.553006,-7.38E-10,,
,6.555006,-7.41E-10,,
,6.557006,-7.44E-10,,
,6.559006,-7.48E-10,,
,6.561006,-7.50E-10,,
,6.563006,-7.53E-10,,
,6.565006,-7.56E-10,,
,6.567006,-7.59E-10,,
,6.569006,-7.61E-10,,
,6.571006,-7.64E-10,,
,6.573006,-7.68E-10,,
,6.575006,-7.71E-10,,
,6.577006,-7.74E-10,,
,6.579006,-7.77E-10,,
,6.581006,-7.80E-10,,
,6.583006,-7.83E-10,,
,6.585006,-7.86E-10,,
,6.587006,-7.89E-10,,
,6.589006,-7.93E-10,,
,6.591006,-7.97E-10,,
,6.593006,-8.01E-10,,
,6.595006,-8.05E-10,,
,6.597006,-8.09E-10,,
,6.599006,-8.13E-10,,
,6.601006,-8.17E-10,,
,6.603006,-8.21E-10,,
,6.605006,-8.26E-10,,
,6.607006,-8.31E-10,,
,6.609006,-8.37E-10,,
,6.611006,-8.42E-10,,
,6.613006,-8.48E-10,,
,6.615006,-8.54E-10,,
,6.617006,-8.59E-10,,
,6.619006,-8.66E-10,,
,6.621006,-8.73E-10,,
,6.623006,-8.80E-10,,
,6.625006,-8.87E-10,,
,6.627006,-8.94E-10,,
,6.629006,-9.01E-10,,
,6.631006,-9.08E-10,,
,6.633006,-9.15E-10,,
,6.635006,-9.23E-10,,
,6.637006,-9.31E-10,,
,6.639006,-9.39E-10,,
,6.641006,-9.47E-10,,
,6.643006,-9.55E-10,,
,6.645006,-9.63E-10,,
,6.647006,-9.71E-10,,
,6.649006,-9.79E-10,,
,6.651006,-9.87E-10,,
,6.653006,-9.95E-10,,
,6.655006,-1.00E-09,,
,6.657006,-1.01E-09,,
,6.659006,-1.02E-09,,
,6.661006,-1.03E-09,,
,6.663006,-1.04E-09,,
,6.665006,-1.04E-09,,
,6.667006,-1.05E-09,,
,6.669006,-1.06E-09,,
,6.671006,-1.07E-09,,
,6.673006,-1.08E-09,,
,6.675006,-1.09E-09,,
,6.677006,-1.09E-09,,
,6.679006,-1.10E-09,,
,6.681006,-1.11E-09,,
,6.683006,-1.12E-09,,
,6.685006,-1.12E-09,,
,6.687006,-1.13E-09,,
,6.689006,-1.14E-09,,
,6.691006,-1.15E-09,,
,6.693006,-1.16E-09,,
,6.695006,-1.16E-09,,
,6.697006,-1.17E-09,,
,6.699006,-1.18E-09,,
,6.701006,-1.19E-09,,
,6.703006,-1.20E-09,,
,6.705006,-1.20E-09,,
,6.707006,-1.21E-09,,
,6.709006,-1.22E-09,,
,6.711006,-1.23E-09,,
,6.713006,-1.23E-09,,
,6.715006,-1.24E-09,,
,6.717006,-1.25E-09,,
,6.719006,-1.25E-09,,
,6.721006,-1.26E-09,,
,6.723006,-1.27E-09,,
,6.725006,-1.27E-09,,
,6.727006,-1.28E-09,,
,6.729006,-1.29E-09,,
,6.731006,-1.29E-09,,
,6.733006,-1.30E-09,,
,6.735006,-1.30E-09,,
,6.737006,-1.31E-09,,
,6.739006,-1.32E-09,,
,6.741006,-1.32E-09,,
,6.743006,-1.33E-09,,
,6.745006,-1.33E-09,,
,6.747006,-1.33E-09,,
,6.749006,-1.34E-09,,
,6.751006,-1.34E-09,,
,6.753006,-1.35E-09,,
,6.755006,-1.35E-09,,
,6.757006,-1.35E-09,,
,6.759006,-1.36E-09,,
,6.761006,-1.36E-09,,
,6.763006,-1.36E-09,,
,6.765006,-1.37E-09,,
,6.767006,-1.37E-09,,
,6.769006,-1.37E-09,,
,6.771006,-1.37E-09,,
,6.773006,-1.37E-09,,
,6.775006,-1.38E-09,,
,6.777006,-1.38E-09,,
,6.779006,-1.38E-09,,
,6.781006,-1.38E-09,,
,6.783006,-1.38E-09,,
,6.785006,-1.38E-09,,
,6.787006,-1.38E-09,,
,6.789006,-1.38E-09,,
,6.791006,-1.38E-09,,
,6.793006,-1.39E-09,,
,6.795006,-1.39E-09,,
,6.797006,-1.39E-09,,
,6.799006,-1.38E-09,,
,6.801006,-1.38E-09,,
,6.803006,-1.38E-09,,
,6.805006,-1.38E-09,,
,6.807006,-1.38E-09,,
,6.809006,-1.38E-09,,
,6.811006,-1.38E-09,,
,6.813006,-1.38E-09,,
,6.815006,-1.38E-09,,
,6.817006,-1.37E-09,,
,6.819006,-1.37E-09,,
,6.821006,-1.37E-09,,
,6.823006,-1.37E-09,,
,6.825006,-1.36E-09,,
,6.827006,-1.36E-09,,
,6.829006,-1.36E-09,,
,6.831006,-1.35E-09,,
,6.833006,-1.35E-09,,
,6.835006,-1.35E-09,,
,6.837006,-1.34E-09,,
,6.839006,-1.34E-09,,
,6.841006,-1.33E-09,,
,6.843006,-1.33E-09,,
,6.845006,-1.33E-09,,
,6.847006,-1.32E-09,,
,6.849006,-1.32E-09,,
,6.851006,-1.31E-09,,
,6.853006,-1.31E-09,,
,6.855006,-1.30E-09,,
,6.857006,-1.30E-09,,
,6.859006,-1.29E-09,,
,6.861006,-1.28E-09,,
,6.863006,-1.28E-09,,
,6.865006,-1.27E-09,,
,6.867006,-1.27E-09,,
,6.869006,-1.26E-09,,
,6.871006,-1.25E-09,,
,6.873006,-1.25E-09,,
,6.875006,-1.24E-09,,
,6.877006,-1.24E-09,,
,6.879006,-1.23E-09,,
,6.881006,-1.22E-09,,
,6.883006,-1.22E-09,,
,6.885006,-1.21E-09,,
,6.887006,-1.20E-09,,
,6.889006,-1.20E-09,,
,6.891006,-1.19E-09,,
,6.893006,-1.19E-09,,
,6.895006,-1.18E-09,,
,6.897006,-1.17E-09,,
,6.899006,-1.17E-09,,
,6.901006,-1.16E-09,,
,6.903006,-1.15E-09,,
,6.905006,-1.15E-09,,
,6.907006,-1.14E-09,,
,6.909006,-1.14E-09,,
,6.911006,-1.13E-09,,
,6.913006,-1.12E-09,,
,6.915006,-1.12E-09,,
,6.917006,-1.11E-09,,
,6.919006,-1.11E-09,,
,6.921006,-1.10E-09,,
,6.923006,-1.10E-09,,
,6.925006,-1.09E-09,,
,6.927006,-1.09E-09,,
,6.929006,-1.08E-09,,
,6.931006,-1.08E-09,,
,6.933006,-1.07E-09,,
,6.935006,-1.07E-09,,
,6.937006,-1.07E-09,,
,6.939006,-1.06E-09,,
,6.941006,-1.06E-09,,
,6.943006,-1.06E-09,,
,6.945006,-1.06E-09,,
,6.947006,-1.05E-09,,
,6.949006,-1.05E-09,,
,6.951006,-1.05E-09,,
,6.953006,-1.04E-09,,
,6.955006,-1.04E-09,,
,6.957006,-1.04E-09,,
,6.959006,-1.04E-09,,
,6.961006,-1.04E-09,,
,6.963006,-1.04E-09,,
,6.965006,-1.03E-09,,
,6.967006,-1.03E-09,,
,6.969006,-1.03E-09,,
,6.971006,-1.03E-09,,
,6.973006,-1.03E-09,,
,6.975006,-1.03E-09,,
,6.977006,-1.02E-09,,
,6.979006,-1.02E-09,,
,6.981006,-1.02E-09,,
,6.983006,-1.02E-09,,
,6.985006,-1.02E-09,,
,6.987006,-1.02E-09,,
,6.989006,-1.01E-09,,
,6.991006,-1.01E-09,,
,6.993006,-1.01E-09,,
,6.995006,-1.01E-09,,
,6.997006,-1.01E-09,,
,6.999006,-1.00E-09,,
,7.001006,-9.99E-10,,
,7.003006,-9.96E-10,,
,7.005006,-9.93E-10,,
,7.007006,-9.89E-10,,
,7.009006,-9.85E-10,,
,7.011006,-9.81E-10,,
,7.013006,-9.77E-10,,
,7.015006,-9.72E-10,,
,7.017006,-9.67E-10,,
,7.019006,-9.62E-10,,
,7.021006,-9.56E-10,,
,7.023006,-9.51E-10,,
,7.025006,-9.45E-10,,
,7.027006,-9.39E-10,,
,7.029006,-9.33E-10,,
,7.031006,-9.26E-10,,
,7.033006,-9.19E-10,,
,7.035006,-9.11E-10,,
,7.037006,-9.04E-10,,
,7.039006,-8.96E-10,,
,7.041006,-8.88E-10,,
,7.043006,-8.79E-10,,
,7.045006,-8.70E-10,,
,7.047006,-8.61E-10,,
,7.049006,-8.52E-10,,
,7.051006,-8.42E-10,,
,7.053006,-8.32E-10,,
,7.055006,-8.22E-10,,
,7.057006,-8.11E-10,,
,7.059006,-8.01E-10,,
,7.061006,-7.90E-10,,
,7.063006,-7.78E-10,,
,7.065006,-7.67E-10,,
,7.067006,-7.55E-10,,
,7.069006,-7.44E-10,,
,7.071006,-7.32E-10,,
,7.073006,-7.20E-10,,
,7.075006,-7.09E-10,,
,7.077006,-6.97E-10,,
,7.079006,-6.86E-10,,
,7.081006,-6.74E-10,,
,7.083006,-6.62E-10,,
,7.085006,-6.51E-10,,
,7.087006,-6.39E-10,,
,7.089006,-6.28E-10,,
,7.091006,-6.17E-10,,
,7.093006,-6.06E-10,,
,7.095006,-5.95E-10,,
,7.097006,-5.84E-10,,
,7.099006,-5.73E-10,,
,7.101006,-5.61E-10,,
,7.103006,-5.50E-10,,
,7.105006,-5.40E-10,,
,7.107006,-5.30E-10,,
,7.109006,-5.19E-10,,
,7.111006,-5.09E-10,,
,7.113006,-4.98E-10,,
,7.115006,-4.88E-10,,
,7.117006,-4.77E-10,,
,7.119006,-4.67E-10,,
,7.121006,-4.57E-10,,
,7.123006,-4.47E-10,,
,7.125006,-4.37E-10,,
,7.127006,-4.28E-10,,
,7.129006,-4.18E-10,,
,7.131006,-4.08E-10,,
,7.133006,-3.98E-10,,
,7.135006,-3.88E-10,,
,7.137006,-3.78E-10,,
,7.139006,-3.69E-10,,
,7.141006,-3.59E-10,,
,7.143006,-3.50E-10,,
,7.145006,-3.41E-10,,
,7.147006,-3.31E-10,,
,7.149006,-3.21E-10,,
,7.151006,-3.12E-10,,
,7.153006,-3.03E-10,,
,7.155006,-2.95E-10,,
,7.157006,-2.86E-10,,
,7.159006,-2.78E-10,,
,7.161006,-2.69E-10,,
,7.163006,-2.61E-10,,
,7.165006,-2.52E-10,,
,7.167006,-2.44E-10,,
,7.169006,-2.36E-10,,
,7.171006,-2.29E-10,,
,7.173006,-2.22E-10,,
,7.175006,-2.15E-10,,
,7.177006,-2.09E-10,,
,7.179006,-2.02E-10,,
,7.181006,-1.95E-10,,
,7.183006,-1.89E-10,,
,7.185006,-1.83E-10,,
,7.187006,-1.78E-10,,
,7.189006,-1.73E-10,,
,7.191006,-1.69E-10,,
,7.193006,-1.64E-10,,
,7.195006,-1.60E-10,,
,7.197006,-1.56E-10,,
,7.199006,-1.53E-10,,
,7.201006,-1.49E-10,,
,7.203006,-1.47E-10,,
,7.205006,-1.45E-10,,
,7.207006,-1.43E-10,,
,7.209006,-1.41E-10,,
,7.211006,-1.39E-10,,
,7.213006,-1.38E-10,,
,7.215006,-1.37E-10,,
,7.217006,-1.36E-10,,
,7.219006,-1.36E-10,,
,7.221006,-1.36E-10,,
,7.223006,-1.37E-10,,
,7.225006,-1.37E-10,,
,7.227006,-1.38E-10,,
,7.229006,-1.39E-10,,
,7.231006,-1.40E-10,,
,7.233006,-1.42E-10,,
,7.235006,-1.43E-10,,
,7.237006,-1.44E-10,,
,7.239006,-1.46E-10,,
,7.241006,-1.49E-10,,
,7.243006,-1.52E-10,,
,7.245006,-1.54E-10,,
,7.247006,-1.56E-10,,
,7.249006,-1.59E-10,,
,7.251006,-1.61E-10,,
,7.253006,-1.64E-10,,
,7.255006,-1.67E-10,,
,7.257006,-1.70E-10,,
,7.259006,-1.73E-10,,
,7.261006,-1.75E-10,,
,7.263006,-1.78E-10,,
,7.265006,-1.81E-10,,
,7.267006,-1.83E-10,,
,7.269006,-1.86E-10,,
,7.271006,-1.89E-10,,
,7.273006,-1.92E-10,,
,7.275006,-1.95E-10,,
,7.277006,-1.98E-10,,
,7.279006,-2.00E-10,,
,7.281006,-2.02E-10,,
,7.283006,-2.05E-10,,
,7.285006,-2.07E-10,,
,7.287006,-2.08E-10,,
,7.289006,-2.10E-10,,
,7.291006,-2.13E-10,,
,7.293006,-2.14E-10,,
,7.295006,-2.16E-10,,
,7.297006,-2.17E-10,,
,7.299006,-2.18E-10,,
,7.301006,-2.19E-10,,
,7.303006,-2.19E-10,,
,7.305006,-2.20E-10,,
,7.307006,-2.20E-10,,
,7.309006,-2.20E-10,,
,7.311006,-2.20E-10,,
,7.313006,-2.19E-10,,
,7.315006,-2.18E-10,,
,7.317006,-2.16E-10,,
,7.319006,-2.15E-10,,
,7.321006,-2.14E-10,,
,7.323006,-2.12E-10,,
,7.325006,-2.10E-10,,
,7.327006,-2.08E-10,,
,7.329006,-2.06E-10,,
,7.331006,-2.02E-10,,
,7.333006,-1.99E-10,,
,7.335006,-1.95E-10,,
,7.337006,-1.91E-10,,
,7.339006,-1.87E-10,,
,7.341006,-1.83E-10,,
,7.343006,-1.79E-10,,
,7.345006,-1.74E-10,,
,7.347006,-1.69E-10,,
,7.349006,-1.63E-10,,
,7.351006,-1.57E-10,,
,7.353006,-1.51E-10,,
,7.355006,-1.45E-10,,
,7.357006,-1.39E-10,,
,7.359006,-1.33E-10,,
,7.361006,-1.26E-10,,
,7.363006,-1.19E-10,,
,7.365006,-1.11E-10,,
,7.367006,-1.03E-10,,
,7.369006,-9.50E-11,,
,7.371006,-8.69E-11,,
,7.373006,-7.88E-11,,
,7.375006,-7.06E-11,,
,7.377006,-6.16E-11,,
,7.379006,-5.23E-11,,
,7.381006,-4.26E-11,,
,7.383006,-3.28E-11,,
,7.385006,-2.27E-11,,
,7.387006,-1.26E-11,,
,7.389006,-2.39E-12,,
,7.391006,7.92E-12,,
,7.393006,1.84E-11,,
,7.395006,2.95E-11,,
,7.397006,4.07E-11,,
,7.399006,5.23E-11,,
,7.401006,6.37E-11,,
,7.403006,7.53E-11,,
,7.405006,8.67E-11,,
,7.407006,9.80E-11,,
,7.409006,1.09E-10,,
,7.411006,1.21E-10,,
,7.413006,1.33E-10,,
,7.415006,1.45E-10,,
,7.417006,1.57E-10,,
,7.419006,1.69E-10,,
,7.421006,1.81E-10,,
,7.423006,1.92E-10,,
,7.425006,2.03E-10,,
,7.427006,2.14E-10,,
,7.429006,2.26E-10,,
,7.431006,2.37E-10,,
,7.433006,2.48E-10,,
,7.435006,2.59E-10,,
,7.437006,2.70E-10,,
,7.439006,2.80E-10,,
,7.441006,2.90E-10,,
,7.443006,3.00E-10,,
,7.445006,3.10E-10,,
,7.447006,3.19E-10,,
,7.449006,3.28E-10,,
,7.451006,3.37E-10,,
,7.453006,3.46E-10,,
,7.455006,3.54E-10,,
,7.457006,3.61E-10,,
,7.459006,3.69E-10,,
,7.461006,3.76E-10,,
,7.463006,3.82E-10,,
,7.465006,3.89E-10,,
,7.467006,3.96E-10,,
,7.469006,4.02E-10,,
,7.471006,4.07E-10,,
,7.473006,4.12E-10,,
,7.475006,4.17E-10,,
,7.477006,4.22E-10,,
,7.479006,4.26E-10,,
,7.481006,4.29E-10,,
,7.483006,4.33E-10,,
,7.485006,4.37E-10,,
,7.487006,4.40E-10,,
,7.489006,4.42E-10,,
,7.491006,4.44E-10,,
,7.493006,4.46E-10,,
,7.495006,4.48E-10,,
,7.497006,4.50E-10,,
,7.499006,4.52E-10,,
,7.501006,4.53E-10,,
,7.503006,4.54E-10,,
,7.505006,4.55E-10,,
,7.507006,4.55E-10,,
,7.509006,4.56E-10,,
,7.511006,4.56E-10,,
,7.513006,4.57E-10,,
,7.515006,4.57E-10,,
,7.517006,4.57E-10,,
,7.519006,4.57E-10,,
,7.521006,4.57E-10,,
,7.523006,4.57E-10,,
,7.525006,4.57E-10,,
,7.527006,4.56E-10,,
,7.529006,4.56E-10,,
,7.531006,4.56E-10,,
,7.533006,4.56E-10,,
,7.535006,4.56E-10,,
,7.537006,4.55E-10,,
,7.539006,4.55E-10,,
,7.541006,4.54E-10,,
,7.543006,4.54E-10,,
,7.545006,4.53E-10,,
,7.547006,4.53E-10,,
,7.549006,4.53E-10,,
,7.551006,4.54E-10,,
,7.553006,4.54E-10,,
,7.555006,4.53E-10,,
,7.557006,4.53E-10,,
,7.559006,4.52E-10,,
,7.561006,4.52E-10,,
,7.563006,4.52E-10,,
,7.565006,4.52E-10,,
,7.567006,4.53E-10,,
,7.569006,4.53E-10,,
,7.571006,4.53E-10,,
,7.573006,4.53E-10,,
,7.575006,4.52E-10,,
,7.577006,4.52E-10,,
,7.579006,4.52E-10,,
,7.581006,4.52E-10,,
,7.583006,4.53E-10,,
,7.585006,4.53E-10,,
,7.587006,4.52E-10,,
,7.589006,4.52E-10,,
,7.591006,4.52E-10,,
,7.593006,4.51E-10,,
,7.595006,4.51E-10,,
,7.597006,4.51E-10,,
,7.599006,4.50E-10,,
,7.601006,4.50E-10,,
,7.603006,4.50E-10,,
,7.605006,4.50E-10,,
,7.607006,4.49E-10,,
,7.609006,4.48E-10,,
,7.611006,4.47E-10,,
,7.613006,4.46E-10,,
,7.615006,4.46E-10,,
,7.617006,4.45E-10,,
,7.619006,4.44E-10,,
,7.621006,4.43E-10,,
,7.623006,4.42E-10,,
,7.625006,4.40E-10,,
,7.627006,4.39E-10,,
,7.629006,4.38E-10,,
,7.631006,4.37E-10,,
,7.633006,4.36E-10,,
,7.635006,4.35E-10,,
,7.637006,4.33E-10,,
,7.639006,4.32E-10,,
,7.641006,4.30E-10,,
,7.643006,4.28E-10,,
,7.645006,4.27E-10,,
,7.647006,4.25E-10,,
,7.649006,4.24E-10,,
,7.651006,4.22E-10,,
,7.653006,4.21E-10,,
,7.655006,4.19E-10,,
,7.657006,4.17E-10,,
,7.659006,4.15E-10,,
,7.661006,4.13E-10,,
,7.663006,4.11E-10,,
,7.665006,4.10E-10,,
,7.667006,4.09E-10,,
,7.669006,4.07E-10,,
,7.671006,4.06E-10,,
,7.673006,4.04E-10,,
,7.675006,4.03E-10,,
,7.677006,4.01E-10,,
,7.679006,4.00E-10,,
,7.681006,3.99E-10,,
,7.683006,3.98E-10,,
,7.685006,3.97E-10,,
,7.687006,3.96E-10,,
,7.689006,3.95E-10,,
,7.691006,3.93E-10,,
,7.693006,3.92E-10,,
,7.695006,3.92E-10,,
,7.697006,3.91E-10,,
,7.699006,3.91E-10,,
,7.701006,3.91E-10,,
,7.703006,3.91E-10,,
,7.705006,3.90E-10,,
,7.707006,3.90E-10,,
,7.709006,3.89E-10,,
,7.711006,3.89E-10,,
,7.713006,3.89E-10,,
,7.715006,3.89E-10,,
,7.717006,3.89E-10,,
,7.719006,3.89E-10,,
,7.721006,3.89E-10,,
,7.723006,3.90E-10,,
,7.725006,3.90E-10,,
,7.727006,3.90E-10,,
,7.729006,3.90E-10,,
,7.731006,3.91E-10,,
,7.733006,3.91E-10,,
,7.735006,3.92E-10,,
,7.737006,3.93E-10,,
,7.739006,3.93E-10,,
,7.741006,3.93E-10,,
,7.743006,3.93E-10,,
,7.745006,3.94E-10,,
,7.747006,3.94E-10,,
,7.749006,3.95E-10,,
,7.751006,3.96E-10,,
,7.753006,3.97E-10,,
,7.755006,3.97E-10,,
,7.757006,3.97E-10,,
,7.759006,3.98E-10,,
,7.761006,3.98E-10,,
,7.763006,3.99E-10,,
,7.765006,3.99E-10,,
,7.767006,4.00E-10,,
,7.769006,4.01E-10,,
,7.771006,4.01E-10,,
,7.773006,4.02E-10,,
,7.775006,4.02E-10,,
,7.777006,4.02E-10,,
,7.779006,4.02E-10,,
,7.781006,4.03E-10,,
,7.783006,4.03E-10,,
,7.785006,4.03E-10,,
,7.787006,4.03E-10,,
,7.789006,4.03E-10,,
,7.791006,4.03E-10,,
,7.793006,4.03E-10,,
,7.795006,4.03E-10,,
,7.797006,4.03E-10,,
,7.799006,4.03E-10,,
,7.801006,4.03E-10,,
,7.803006,4.02E-10,,
,7.805006,4.01E-10,,
,7.807006,4.01E-10,,
,7.809006,4.00E-10,,
,7.811006,3.99E-10,,
,7.813006,3.98E-10,,
,7.815006,3.98E-10,,
,7.817006,3.98E-10,,
,7.819006,3.97E-10,,
,7.821006,3.96E-10,,
,7.823006,3.95E-10,,
,7.825006,3.93E-10,,
,7.827006,3.91E-10,,
,7.829006,3.90E-10,,
,7.831006,3.89E-10,,
,7.833006,3.88E-10,,
,7.835006,3.86E-10,,
,7.837006,3.85E-10,,
,7.839006,3.83E-10,,
,7.841006,3.81E-10,,
,7.843006,3.79E-10,,
,7.845006,3.78E-10,,
,7.847006,3.76E-10,,
,7.849006,3.75E-10,,
,7.851006,3.73E-10,,
,7.853006,3.71E-10,,
,7.855006,3.69E-10,,
,7.857006,3.66E-10,,
,7.859006,3.64E-10,,
,7.861006,3.61E-10,,
,7.863006,3.60E-10,,
,7.865006,3.58E-10,,
,7.867006,3.56E-10,,
,7.869006,3.54E-10,,
,7.871006,3.52E-10,,
,7.873006,3.49E-10,,
,7.875006,3.46E-10,,
,7.877006,3.44E-10,,
,7.879006,3.41E-10,,
,7.881006,3.39E-10,,
,7.883006,3.37E-10,,
,7.885006,3.35E-10,,
,7.887006,3.32E-10,,
,7.889006,3.30E-10,,
,7.891006,3.27E-10,,
,7.893006,3.24E-10,,
,7.895006,3.21E-10,,
,7.897006,3.19E-10,,
,7.899006,3.17E-10,,
,7.901006,3.15E-10,,
,7.903006,3.12E-10,,
,7.905006,3.10E-10,,
,7.907006,3.07E-10,,
,7.909006,3.05E-10,,
,7.911006,3.02E-10,,
,7.913006,3.00E-10,,
,7.915006,2.98E-10,,
,7.917006,2.96E-10,,
,7.919006,2.94E-10,,
,7.921006,2.92E-10,,
,7.923006,2.89E-10,,
,7.925006,2.87E-10,,
,7.927006,2.85E-10,,
,7.929006,2.83E-10,,
,7.931006,2.81E-10,,
,7.933006,2.79E-10,,
,7.935006,2.77E-10,,
,7.937006,2.76E-10,,
,7.939006,2.74E-10,,
,7.941006,2.72E-10,,
,7.943006,2.71E-10,,
,7.945006,2.69E-10,,
,7.947006,2.68E-10,,
,7.949006,2.66E-10,,
,7.951006,2.65E-10,,
,7.953006,2.64E-10,,
,7.955006,2.62E-10,,
,7.957006,2.61E-10,,
,7.959006,2.59E-10,,
,7.961006,2.58E-10,,
,7.963006,2.58E-10,,
,7.965006,2.57E-10,,
,7.967006,2.57E-10,,
,7.969006,2.56E-10,,
,7.971006,2.56E-10,,
,7.973006,2.55E-10,,
,7.975006,2.54E-10,,
,7.977006,2.53E-10,,
,7.979006,2.53E-10,,
,7.981006,2.53E-10,,
,7.983006,2.53E-10,,
,7.985006,2.53E-10,,
,7.987006,2.53E-10,,
,7.989006,2.53E-10,,
,7.991006,2.52E-10,,
,7.993006,2.52E-10,,
,7.995006,2.52E-10,,
,7.997006,2.52E-10,,
,7.999006,2.53E-10,,
,8.001006,2.54E-10,,
,8.003006,2.54E-10,,
,8.005006,2.55E-10,,
,8.007006,2.55E-10,,
,8.009006,2.55E-10,,
,8.011006,2.55E-10,,
,8.013006,2.56E-10,,
,8.015006,2.58E-10,,
,8.017006,2.59E-10,,
,8.019006,2.60E-10,,
,8.021006,2.61E-10,,
,8.023006,2.62E-10,,
,8.025006,2.62E-10,,
,8.027006,2.64E-10,,
,8.029006,2.65E-10,,
,8.031006,2.66E-10,,
,8.033006,2.68E-10,,
,8.035006,2.69E-10,,
,8.037006,2.71E-10,,
,8.039006,2.72E-10,,
,8.041006,2.73E-10,,
,8.043006,2.74E-10,,
,8.045006,2.76E-10,,
,8.047006,2.78E-10,,
,8.049006,2.80E-10,,
,8.051006,2.82E-10,,
,8.053006,2.84E-10,,
,8.055006,2.86E-10,,
,8.057006,2.87E-10,,
,8.059006,2.89E-10,,
,8.061006,2.91E-10,,
,8.063006,2.93E-10,,
,8.065006,2.95E-10,,
,8.067006,2.97E-10,,
,8.069006,3.00E-10,,
,8.071006,3.02E-10,,
,8.073006,3.04E-10,,
,8.075006,3.06E-10,,
,8.077006,3.07E-10,,
,8.079006,3.10E-10,,
,8.081006,3.13E-10,,
,8.083006,3.15E-10,,
,8.085006,3.18E-10,,
,8.087006,3.21E-10,,
,8.089006,3.23E-10,,
,8.091006,3.25E-10,,
,8.093006,3.28E-10,,
,8.095006,3.30E-10,,
,8.097006,3.33E-10,,
,8.099006,3.36E-10,,
,8.101006,3.40E-10,,
,8.103006,3.43E-10,,
,8.105006,3.46E-10,,
,8.107006,3.49E-10,,
,8.109006,3.51E-10,,
,8.111006,3.54E-10,,
,8.113006,3.57E-10,,
,8.115006,3.61E-10,,
,8.117006,3.65E-10,,
,8.119006,3.68E-10,,
,8.121006,3.71E-10,,
,8.123006,3.75E-10,,
,8.125006,3.78E-10,,
,8.127006,3.81E-10,,
,8.129006,3.84E-10,,
,8.131006,3.88E-10,,
,8.133006,3.92E-10,,
,8.135006,3.96E-10,,
,8.137006,4.00E-10,,
,8.139006,4.03E-10,,
,8.141006,4.06E-10,,
,8.143006,4.10E-10,,
,8.145006,4.14E-10,,
,8.147006,4.17E-10,,
,8.149006,4.21E-10,,
,8.151006,4.25E-10,,
,8.153006,4.29E-10,,
,8.155006,4.33E-10,,
,8.157006,4.36E-10,,
,8.159006,4.40E-10,,
,8.161006,4.44E-10,,
,8.163006,4.48E-10,,
,8.165006,4.52E-10,,
,8.167006,4.56E-10,,
,8.169006,4.60E-10,,
,8.171006,4.64E-10,,
,8.173006,4.68E-10,,
,8.175006,4.72E-10,,
,8.177006,4.76E-10,,
,8.179006,4.80E-10,,
,8.181006,4.84E-10,,
,8.183006,4.88E-10,,
,8.185006,4.92E-10,,
,8.187006,4.96E-10,,
,8.189006,5.00E-10,,
,8.191006,5.04E-10,,
,8.193006,5.07E-10,,
,8.195006,5.11E-10,,
,8.197006,5.15E-10,,
,8.199006,5.19E-10,,
,8.201006,5.23E-10,,
,8.203006,5.27E-10,,
,8.205006,5.30E-10,,
,8.207006,5.33E-10,,
,8.209006,5.36E-10,,
,8.211006,5.40E-10,,
,8.213006,5.43E-10,,
,8.215006,5.47E-10,,
,8.217006,5.51E-10,,
,8.219006,5.54E-10,,
,8.221006,5.57E-10,,
,8.223006,5.60E-10,,
,8.225006,5.63E-10,,
,8.227006,5.66E-10,,
,8.229006,5.69E-10,,
,8.231006,5.72E-10,,
,8.233006,5.75E-10,,
,8.235006,5.78E-10,,
,8.237006,5.81E-10,,
,8.239006,5.83E-10,,
,8.241006,5.86E-10,,
,8.243006,5.89E-10,,
,8.245006,5.91E-10,,
,8.247006,5.94E-10,,
,8.249006,5.96E-10,,
,8.251006,5.99E-10,,
,8.253006,6.02E-10,,
,8.255006,6.04E-10,,
,8.257006,6.06E-10,,
,8.259006,6.08E-10,,
,8.261006,6.10E-10,,
,8.263006,6.12E-10,,
,8.265006,6.14E-10,,
,8.267006,6.16E-10,,
,8.269006,6.18E-10,,
,8.271006,6.20E-10,,
,8.273006,6.22E-10,,
,8.275006,6.23E-10,,
,8.277006,6.25E-10,,
,8.279006,6.27E-10,,
,8.281006,6.28E-10,,
,8.283006,6.30E-10,,
,8.285006,6.32E-10,,
,8.287006,6.33E-10,,
,8.289006,6.34E-10,,
,8.291006,6.35E-10,,
,8.293006,6.36E-10,,
,8.295006,6.38E-10,,
,8.297006,6.39E-10,,
,8.299006,6.40E-10,,
,8.301006,6.42E-10,,
,8.303006,6.43E-10,,
,8.305006,6.44E-10,,
,8.307006,6.44E-10,,
,8.309006,6.45E-10,,
,8.311006,6.45E-10,,
,8.313006,6.46E-10,,
,8.315006,6.47E-10,,
,8.317006,6.48E-10,,
,8.319006,6.48E-10,,
,8.321006,6.49E-10,,
,8.323006,6.49E-10,,
,8.325006,6.49E-10,,
,8.327006,6.50E-10,,
,8.329006,6.50E-10,,
,8.331006,6.51E-10,,
,8.333006,6.52E-10,,
,8.335006,6.53E-10,,
,8.337006,6.53E-10,,
,8.339006,6.53E-10,,
,8.341006,6.53E-10,,
,8.343006,6.53E-10,,
,8.345006,6.54E-10,,
,8.347006,6.55E-10,,
,8.349006,6.56E-10,,
,8.351006,6.57E-10,,
,8.353006,6.57E-10,,
,8.355006,6.58E-10,,
,8.357006,6.58E-10,,
,8.359006,6.58E-10,,
,8.361006,6.59E-10,,
,8.363006,6.60E-10,,
,8.365006,6.61E-10,,
,8.367006,6.62E-10,,
,8.369006,6.63E-10,,
,8.371006,6.64E-10,,
,8.373006,6.65E-10,,
,8.375006,6.65E-10,,
,8.377006,6.66E-10,,
,8.379006,6.67E-10,,
,8.381006,6.68E-10,,
,8.383006,6.69E-10,,
,8.385006,6.70E-10,,
,8.387006,6.72E-10,,
,8.389006,6.73E-10,,
,8.391006,6.74E-10,,
,8.393006,6.74E-10,,
,8.395006,6.76E-10,,
,8.397006,6.77E-10,,
,8.399006,6.78E-10,,
,8.401006,6.80E-10,,
,8.403006,6.82E-10,,
,8.405006,6.83E-10,,
,8.407006,6.84E-10,,
,8.409006,6.85E-10,,
,8.411006,6.86E-10,,
,8.413006,6.88E-10,,
,8.415006,6.89E-10,,
,8.417006,6.91E-10,,
,8.419006,6.93E-10,,
,8.421006,6.94E-10,,
,8.423006,6.96E-10,,
,8.425006,6.97E-10,,
,8.427006,6.98E-10,,
,8.429006,7.00E-10,,
,8.431006,7.02E-10,,
,8.433006,7.03E-10,,
,8.435006,7.05E-10,,
,8.437006,7.06E-10,,
,8.439006,7.08E-10,,
,8.441006,7.09E-10,,
,8.443006,7.10E-10,,
,8.445006,7.12E-10,,
,8.447006,7.13E-10,,
,8.449006,7.15E-10,,
,8.451006,7.17E-10,,
,8.453006,7.19E-10,,
,8.455006,7.20E-10,,
,8.457006,7.21E-10,,
,8.459006,7.23E-10,,
,8.461006,7.24E-10,,
,8.463006,7.26E-10,,
,8.465006,7.27E-10,,
,8.467006,7.29E-10,,
,8.469006,7.31E-10,,
,8.471006,7.32E-10,,
,8.473006,7.33E-10,,
,8.475006,7.34E-10,,
,8.477006,7.35E-10,,
,8.479006,7.37E-10,,
,8.481006,7.39E-10,,
,8.483006,7.41E-10,,
,8.485006,7.43E-10,,
,8.487006,7.45E-10,,
,8.489006,7.46E-10,,
,8.491006,7.47E-10,,
,8.493006,7.49E-10,,
,8.495006,7.50E-10,,
,8.497006,7.52E-10,,
,8.499006,7.54E-10,,
,8.501006,7.56E-10,,
,8.503006,7.58E-10,,
,8.505006,7.59E-10,,
,8.507006,7.60E-10,,
,8.509006,7.62E-10,,
,8.511006,7.63E-10,,
,8.513006,7.65E-10,,
,8.515006,7.67E-10,,
,8.517006,7.69E-10,,
,8.519006,7.71E-10,,
,8.521006,7.73E-10,,
,8.523006,7.75E-10,,
,8.525006,7.76E-10,,
,8.527006,7.78E-10,,
,8.529006,7.79E-10,,
,8.531006,7.81E-10,,
,8.533006,7.83E-10,,
,8.535006,7.85E-10,,
,8.537006,7.87E-10,,
,8.539006,7.88E-10,,
,8.541006,7.90E-10,,
,8.543006,7.91E-10,,
,8.545006,7.93E-10,,
,8.547006,7.95E-10,,
,8.549006,7.97E-10,,
,8.551006,7.99E-10,,
,8.553006,8.02E-10,,
,8.555006,8.03E-10,,
,8.557006,8.05E-10,,
,8.559006,8.06E-10,,
,8.561006,8.08E-10,,
,8.563006,8.10E-10,,
,8.565006,8.12E-10,,
,8.567006,8.14E-10,,
,8.569006,8.16E-10,,
,8.571006,8.18E-10,,
,8.573006,8.20E-10,,
,8.575006,8.21E-10,,
,8.577006,8.23E-10,,
,8.579006,8.25E-10,,
,8.581006,8.27E-10,,
,8.583006,8.30E-10,,
,8.585006,8.32E-10,,
,8.587006,8.33E-10,,
,8.589006,8.35E-10,,
,8.591006,8.36E-10,,
,8.593006,8.38E-10,,
,8.595006,8.39E-10,,
,8.597006,8.41E-10,,
,8.599006,8.43E-10,,
,8.601006,8.45E-10,,
,8.603006,8.47E-10,,
,8.605006,8.49E-10,,
,8.607006,8.50E-10,,
,8.609006,8.51E-10,,
,8.611006,8.52E-10,,
,8.613006,8.54E-10,,
,8.615006,8.55E-10,,
,8.617006,8.57E-10,,
,8.619006,8.59E-10,,
,8.621006,8.60E-10,,
,8.623006,8.62E-10,,
,8.625006,8.63E-10,,
,8.627006,8.64E-10,,
,8.629006,8.65E-10,,
,8.631006,8.67E-10,,
,8.633006,8.68E-10,,
,8.635006,8.70E-10,,
,8.637006,8.71E-10,,
,8.639006,8.72E-10,,
,8.641006,8.72E-10,,
,8.643006,8.73E-10,,
,8.645006,8.74E-10,,
,8.647006,8.75E-10,,
,8.649006,8.76E-10,,
,8.651006,8.77E-10,,
,8.653006,8.79E-10,,
,8.655006,8.79E-10,,
,8.657006,8.80E-10,,
,8.659006,8.80E-10,,
,8.661006,8.80E-10,,
,8.663006,8.81E-10,,
,8.665006,8.82E-10,,
,8.667006,8.83E-10,,
,8.669006,8.83E-10,,
,8.671006,8.84E-10,,
,8.673006,8.84E-10,,
,8.675006,8.84E-10,,
,8.677006,8.84E-10,,
,8.679006,8.84E-10,,
,8.681006,8.85E-10,,
,8.683006,8.86E-10,,
,8.685006,8.86E-10,,
,8.687006,8.86E-10,,
,8.689006,8.86E-10,,
,8.691006,8.86E-10,,
,8.693006,8.85E-10,,
,8.695006,8.86E-10,,
,8.697006,8.86E-10,,
,8.699006,8.86E-10,,
,8.701006,8.87E-10,,
,8.703006,8.87E-10,,
,8.705006,8.87E-10,,
,8.707006,8.86E-10,,
,8.709006,8.86E-10,,
,8.711006,8.86E-10,,
,8.713006,8.86E-10,,
,8.715006,8.87E-10,,
,8.717006,8.87E-10,,
,8.719006,8.88E-10,,
,8.721006,8.88E-10,,
,8.723006,8.88E-10,,
,8.725006,8.88E-10,,
,8.727006,8.88E-10,,
,8.729006,8.87E-10,,
,8.731006,8.87E-10,,
,8.733006,8.88E-10,,
,8.735006,8.88E-10,,
,8.737006,8.88E-10,,
,8.739006,8.87E-10,,
,8.741006,8.87E-10,,
,8.743006,8.87E-10,,
,8.745006,8.86E-10,,
,8.747006,8.86E-10,,
,8.749006,8.86E-10,,
,8.751006,8.86E-10,,
,8.753006,8.86E-10,,
,8.755006,8.85E-10,,
,8.757006,8.84E-10,,
,8.759006,8.83E-10,,
,8.761006,8.82E-10,,
,8.763006,8.81E-10,,
,8.765006,8.81E-10,,
,8.767006,8.80E-10,,
,8.769006,8.79E-10,,
,8.771006,8.78E-10,,
,8.773006,8.77E-10,,
,8.775006,8.75E-10,,
,8.777006,8.74E-10,,
,8.779006,8.72E-10,,
,8.781006,8.71E-10,,
,8.783006,8.70E-10,,
,8.785006,8.68E-10,,
,8.787006,8.66E-10,,
,8.789006,8.64E-10,,
,8.791006,8.62E-10,,
,8.793006,8.60E-10,,
,8.795006,8.58E-10,,
,8.797006,8.55E-10,,
,8.799006,8.53E-10,,
,8.801006,8.50E-10,,
,8.803006,8.47E-10,,
,8.805006,8.44E-10,,
,8.807006,8.41E-10,,
,8.809006,8.38E-10,,
,8.811006,8.34E-10,,
,8.813006,8.31E-10,,
,8.815006,8.27E-10,,
,8.817006,8.24E-10,,
,8.819006,8.20E-10,,
,8.821006,8.16E-10,,
,8.823006,8.11E-10,,
,8.825006,8.06E-10,,
,8.827006,8.01E-10,,
,8.829006,7.97E-10,,
,8.831006,7.92E-10,,
,8.833006,7.87E-10,,
,8.835006,7.82E-10,,
,8.837006,7.77E-10,,
,8.839006,7.71E-10,,
,8.841006,7.65E-10,,
,8.843006,7.59E-10,,
,8.845006,7.53E-10,,
,8.847006,7.48E-10,,
,8.849006,7.42E-10,,
,8.851006,7.36E-10,,
,8.853006,7.30E-10,,
,8.855006,7.24E-10,,
,8.857006,7.17E-10,,
,8.859006,7.10E-10,,
,8.861006,7.03E-10,,
,8.863006,6.97E-10,,
,8.865006,6.90E-10,,
,8.867006,6.84E-10,,
,8.869006,6.77E-10,,
,8.871006,6.70E-10,,
,8.873006,6.62E-10,,
,8.875006,6.55E-10,,
,8.877006,6.48E-10,,
,8.879006,6.40E-10,,
,8.881006,6.33E-10,,
,8.883006,6.26E-10,,
,8.885006,6.18E-10,,
,8.887006,6.11E-10,,
,8.889006,6.02E-10,,
,8.891006,5.94E-10,,
,8.893006,5.85E-10,,
,8.895006,5.77E-10,,
,8.897006,5.69E-10,,
,8.899006,5.60E-10,,
,8.901006,5.52E-10,,
,8.903006,5.43E-10,,
,8.905006,5.34E-10,,
,8.907006,5.25E-10,,
,8.909006,5.15E-10,,
,8.911006,5.05E-10,,
,8.913006,4.96E-10,,
,8.915006,4.86E-10,,
,8.917006,4.77E-10,,
,8.919006,4.67E-10,,
,8.921006,4.56E-10,,
,8.923006,4.46E-10,,
,8.925006,4.34E-10,,
,8.927006,4.23E-10,,
,8.929006,4.12E-10,,
,8.931006,4.01E-10,,
,8.933006,3.91E-10,,
,8.935006,3.79E-10,,
,8.937006,3.68E-10,,
,8.939006,3.56E-10,,
,8.941006,3.45E-10,,
,8.943006,3.33E-10,,
,8.945006,3.21E-10,,
,8.947006,3.10E-10,,
,8.949006,2.98E-10,,
,8.951006,2.87E-10,,
,8.953006,2.75E-10,,
,8.955006,2.63E-10,,
,8.957006,2.51E-10,,
,8.959006,2.38E-10,,
,8.961006,2.26E-10,,
,8.963006,2.14E-10,,
,8.965006,2.02E-10,,
,8.967006,1.91E-10,,
,8.969006,1.79E-10,,
,8.971006,1.67E-10,,
,8.973006,1.55E-10,,
,8.975006,1.42E-10,,
,8.977006,1.30E-10,,
,8.979006,1.19E-10,,
,8.981006,1.07E-10,,
,8.983006,9.51E-11,,
,8.985006,8.34E-11,,
,8.987006,7.15E-11,,
,8.989006,5.93E-11,,
,8.991006,4.70E-11,,
,8.993006,3.49E-11,,
,8.995006,2.31E-11,,
,8.997006,1.15E-11,,
,8.999006,-2.53E-14,,
,9.001006,-1.13E-11,,
,9.003006,-2.28E-11,,
,9.005006,-3.47E-11,,
,9.007006,-4.67E-11,,
,9.009006,-5.86E-11,,
,9.011006,-7.01E-11,,
,9.013006,-8.15E-11,,
,9.015006,-9.26E-11,,
,9.017006,-1.04E-10,,
,9.019006,-1.15E-10,,
,9.021006,-1.26E-10,,
,9.023006,-1.37E-10,,
,9.025006,-1.49E-10,,
,9.027006,-1.60E-10,,
,9.029006,-1.71E-10,,
,9.031006,-1.82E-10,,
,9.033006,-1.93E-10,,
,9.035006,-2.03E-10,,
,9.037006,-2.14E-10,,
,9.039006,-2.24E-10,,
,9.041006,-2.35E-10,,
,9.043006,-2.46E-10,,
,9.045006,-2.56E-10,,
,9.047006,-2.66E-10,,
,9.049006,-2.76E-10,,
,9.051006,-2.86E-10,,
,9.053006,-2.95E-10,,
,9.055006,-3.05E-10,,
,9.057006,-3.15E-10,,
,9.059006,-3.25E-10,,
,9.061006,-3.34E-10,,
,9.063006,-3.43E-10,,
,9.065006,-3.52E-10,,
,9.067006,-3.61E-10,,
,9.069006,-3.70E-10,,
,9.071006,-3.78E-10,,
,9.073006,-3.87E-10,,
,9.075006,-3.95E-10,,
,9.077006,-4.04E-10,,
,9.079006,-4.12E-10,,
,9.081006,-4.20E-10,,
,9.083006,-4.28E-10,,
,9.085006,-4.35E-10,,
,9.087006,-4.42E-10,,
,9.089006,-4.50E-10,,
,9.091006,-4.58E-10,,
,9.093006,-4.66E-10,,
,9.095006,-4.73E-10,,
,9.097006,-4.80E-10,,
,9.099006,-4.86E-10,,
,9.101006,-4.92E-10,,
,9.103006,-4.98E-10,,
,9.105006,-5.05E-10,,
,9.107006,-5.11E-10,,
,9.109006,-5.17E-10,,
,9.111006,-5.23E-10,,
,9.113006,-5.29E-10,,
,9.115006,-5.34E-10,,
,9.117006,-5.39E-10,,
,9.119006,-5.44E-10,,
,9.121006,-5.49E-10,,
,9.123006,-5.54E-10,,
,9.125006,-5.60E-10,,
,9.127006,-5.65E-10,,
,9.129006,-5.69E-10,,
,9.131006,-5.74E-10,,
,9.133006,-5.78E-10,,
,9.135006,-5.82E-10,,
,9.137006,-5.86E-10,,
,9.139006,-5.90E-10,,
,9.141006,-5.94E-10,,
,9.143006,-5.98E-10,,
,9.145006,-6.02E-10,,
,9.147006,-6.05E-10,,
,9.149006,-6.08E-10,,
,9.151006,-6.11E-10,,
,9.153006,-6.14E-10,,
,9.155006,-6.17E-10,,
,9.157006,-6.20E-10,,
,9.159006,-6.23E-10,,
,9.161006,-6.26E-10,,
,9.163006,-6.28E-10,,
,9.165006,-6.30E-10,,
,9.167006,-6.32E-10,,
,9.169006,-6.34E-10,,
,9.171006,-6.36E-10,,
,9.173006,-6.38E-10,,
,9.175006,-6.40E-10,,
,9.177006,-6.42E-10,,
,9.179006,-6.43E-10,,
,9.181006,-6.44E-10,,
,9.183006,-6.45E-10,,
,9.185006,-6.46E-10,,
,9.187006,-6.47E-10,,
,9.189006,-6.49E-10,,
,9.191006,-6.50E-10,,
,9.193006,-6.51E-10,,
,9.195006,-6.52E-10,,
,9.197006,-6.53E-10,,
,9.199006,-6.53E-10,,
,9.201006,-6.54E-10,,
,9.203006,-6.54E-10,,
,9.205006,-6.55E-10,,
,9.207006,-6.55E-10,,
,9.209006,-6.56E-10,,
,9.211006,-6.56E-10,,
,9.213006,-6.57E-10,,
,9.215006,-6.57E-10,,
,9.217006,-6.57E-10,,
,9.219006,-6.57E-10,,
,9.221006,-6.57E-10,,
,9.223006,-6.58E-10,,
,9.225006,-6.58E-10,,
,9.227006,-6.59E-10,,
,9.229006,-6.59E-10,,
,9.231006,-6.59E-10,,
,9.233006,-6.59E-10,,
,9.235006,-6.59E-10,,
,9.237006,-6.59E-10,,
,9.239006,-6.60E-10,,
,9.241006,-6.60E-10,,
,9.243006,-6.61E-10,,
,9.245006,-6.61E-10,,
,9.247006,-6.61E-10,,
,9.249006,-6.62E-10,,
,9.251006,-6.62E-10,,
,9.253006,-6.62E-10,,
,9.255006,-6.63E-10,,
,9.257006,-6.63E-10,,
,9.259006,-6.64E-10,,
,9.261006,-6.65E-10,,
,9.263006,-6.65E-10,,
,9.265006,-6.66E-10,,
,9.267006,-6.66E-10,,
,9.269006,-6.66E-10,,
,9.271006,-6.67E-10,,
,9.273006,-6.68E-10,,
,9.275006,-6.68E-10,,
,9.277006,-6.69E-10,,
,9.279006,-6.69E-10,,
,9.281006,-6.69E-10,,
,9.283006,-6.69E-10,,
,9.285006,-6.69E-10,,
,9.287006,-6.70E-10,,
,9.289006,-6.71E-10,,
,9.291006,-6.71E-10,,
,9.293006,-6.72E-10,,
,9.295006,-6.72E-10,,
,9.297006,-6.72E-10,,
,9.299006,-6.73E-10,,
,9.301006,-6.73E-10,,
,9.303006,-6.73E-10,,
,9.305006,-6.73E-10,,
,9.307006,-6.74E-10,,
,9.309006,-6.75E-10,,
,9.311006,-6.75E-10,,
,9.313006,-6.75E-10,,
,9.315006,-6.75E-10,,
,9.317006,-6.75E-10,,
,9.319006,-6.75E-10,,
,9.321006,-6.75E-10,,
,9.323006,-6.76E-10,,
,9.325006,-6.76E-10,,
,9.327006,-6.77E-10,,
,9.329006,-6.77E-10,,
,9.331006,-6.77E-10,,
,9.333006,-6.77E-10,,
,9.335006,-6.77E-10,,
,9.337006,-6.77E-10,,
,9.339006,-6.78E-10,,
,9.341006,-6.78E-10,,
,9.343006,-6.79E-10,,
,9.345006,-6.79E-10,,
,9.347006,-6.79E-10,,
,9.349006,-6.80E-10,,
,9.351006,-6.80E-10,,
,9.353006,-6.80E-10,,
,9.355006,-6.80E-10,,
,9.357006,-6.81E-10,,
,9.359006,-6.82E-10,,
,9.361006,-6.83E-10,,
,9.363006,-6.84E-10,,
,9.365006,-6.84E-10,,
,9.367006,-6.85E-10,,
,9.369006,-6.85E-10,,
,9.371006,-6.86E-10,,
,9.373006,-6.87E-10,,
,9.375006,-6.88E-10,,
,9.377006,-6.88E-10,,
,9.379006,-6.89E-10,,
,9.381006,-6.90E-10,,
,9.383006,-6.90E-10,,
,9.385006,-6.91E-10,,
,9.387006,-6.92E-10,,
,9.389006,-6.93E-10,,
,9.391006,-6.94E-10,,
,9.393006,-6.95E-10,,
,9.395006,-6.96E-10,,
,9.397006,-6.97E-10,,
,9.399006,-6.98E-10,,
,9.401006,-6.99E-10,,
,9.403006,-7.00E-10,,
,9.405006,-7.01E-10,,
,9.407006,-7.03E-10,,
,9.409006,-7.04E-10,,
,9.411006,-7.06E-10,,
,9.413006,-7.07E-10,,
,9.415006,-7.08E-10,,
,9.417006,-7.10E-10,,
,9.419006,-7.11E-10,,
,9.421006,-7.13E-10,,
,9.423006,-7.15E-10,,
,9.425006,-7.18E-10,,
,9.427006,-7.20E-10,,
,9.429006,-7.22E-10,,
,9.431006,-7.24E-10,,
,9.433006,-7.26E-10,,
,9.435006,-7.28E-10,,
,9.437006,-7.30E-10,,
,9.439006,-7.32E-10,,
,9.441006,-7.34E-10,,
,9.443006,-7.37E-10,,
,9.445006,-7.39E-10,,
,9.447006,-7.42E-10,,
,9.449006,-7.44E-10,,
,9.451006,-7.46E-10,,
,9.453006,-7.48E-10,,
,9.455006,-7.50E-10,,
,9.457006,-7.53E-10,,
,9.459006,-7.55E-10,,
,9.461006,-7.57E-10,,
,9.463006,-7.60E-10,,
,9.465006,-7.62E-10,,
,9.467006,-7.63E-10,,
,9.469006,-7.65E-10,,
,9.471006,-7.67E-10,,
,9.473006,-7.70E-10,,
,9.475006,-7.72E-10,,
,9.477006,-7.74E-10,,
,9.479006,-7.76E-10,,
,9.481006,-7.77E-10,,
,9.483006,-7.79E-10,,
,9.485006,-7.80E-10,,
,9.487006,-7.81E-10,,
,9.489006,-7.83E-10,,
,9.491006,-7.84E-10,,
,9.493006,-7.86E-10,,
,9.495006,-7.87E-10,,
,9.497006,-7.88E-10,,
,9.499006,-7.89E-10,,
,9.501006,-7.89E-10,,
,9.503006,-7.90E-10,,
,9.505006,-7.91E-10,,
,9.507006,-7.92E-10,,
,9.509006,-7.93E-10,,
,9.511006,-7.93E-10,,
,9.513006,-7.93E-10,,
,9.515006,-7.93E-10,,
,9.517006,-7.93E-10,,
,9.519006,-7.92E-10,,
,9.521006,-7.92E-10,,
,9.523006,-7.92E-10,,
,9.525006,-7.92E-10,,
,9.527006,-7.92E-10,,
,9.529006,-7.92E-10,,
,9.531006,-7.91E-10,,
,9.533006,-7.90E-10,,
,9.535006,-7.89E-10,,
,9.537006,-7.88E-10,,
,9.539006,-7.87E-10,,
,9.541006,-7.86E-10,,
,9.543006,-7.85E-10,,
,9.545006,-7.84E-10,,
,9.547006,-7.82E-10,,
,9.549006,-7.80E-10,,
,9.551006,-7.77E-10,,
,9.553006,-7.75E-10,,
,9.555006,-7.73E-10,,
,9.557006,-7.71E-10,,
,9.559006,-7.69E-10,,
,9.561006,-7.67E-10,,
,9.563006,-7.64E-10,,
,9.565006,-7.61E-10,,
,9.567006,-7.58E-10,,
,9.569006,-7.55E-10,,
,9.571006,-7.52E-10,,
,9.573006,-7.49E-10,,
,9.575006,-7.45E-10,,
,9.577006,-7.42E-10,,
,9.579006,-7.39E-10,,
,9.581006,-7.35E-10,,
,9.583006,-7.31E-10,,
,9.585006,-7.27E-10,,
,9.587006,-7.23E-10,,
,9.589006,-7.19E-10,,
,9.591006,-7.16E-10,,
,9.593006,-7.12E-10,,
,9.595006,-7.08E-10,,
,9.597006,-7.04E-10,,
,9.599006,-6.99E-10,,
,9.601006,-6.95E-10,,
,9.603006,-6.91E-10,,
,9.605006,-6.87E-10,,
,9.607006,-6.83E-10,,
,9.609006,-6.79E-10,,
,9.611006,-6.74E-10,,
,9.613006,-6.70E-10,,
,9.615006,-6.66E-10,,
,9.617006,-6.61E-10,,
,9.619006,-6.57E-10,,
,9.621006,-6.52E-10,,
,9.623006,-6.48E-10,,
,9.625006,-6.45E-10,,
,9.627006,-6.41E-10,,
,9.629006,-6.37E-10,,
,9.631006,-6.33E-10,,
,9.633006,-6.29E-10,,
,9.635006,-6.25E-10,,
,9.637006,-6.21E-10,,
,9.639006,-6.18E-10,,
,9.641006,-6.15E-10,,
,9.643006,-6.11E-10,,
,9.645006,-6.08E-10,,
,9.647006,-6.04E-10,,
,9.649006,-6.01E-10,,
,9.651006,-5.97E-10,,
,9.653006,-5.94E-10,,
,9.655006,-5.91E-10,,
,9.657006,-5.89E-10,,
,9.659006,-5.87E-10,,
,9.661006,-5.84E-10,,
,9.663006,-5.82E-10,,
,9.665006,-5.79E-10,,
,9.667006,-5.77E-10,,
,9.669006,-5.74E-10,,
,9.671006,-5.72E-10,,
,9.673006,-5.70E-10,,
,9.675006,-5.69E-10,,
,9.677006,-5.67E-10,,
,9.679006,-5.65E-10,,
,9.681006,-5.64E-10,,
,9.683006,-5.61E-10,,
,9.685006,-5.60E-10,,
,9.687006,-5.58E-10,,
,9.689006,-5.58E-10,,
,9.691006,-5.57E-10,,
,9.693006,-5.56E-10,,
,9.695006,-5.55E-10,,
,9.697006,-5.54E-10,,
,9.699006,-5.53E-10,,
,9.701006,-5.52E-10,,
,9.703006,-5.52E-10,,
,9.705006,-5.51E-10,,
,9.707006,-5.51E-10,,
,9.709006,-5.51E-10,,
,9.711006,-5.51E-10,,
,9.713006,-5.50E-10,,
,9.715006,-5.50E-10,,
,9.717006,-5.49E-10,,
,9.719006,-5.49E-10,,
,9.721006,-5.49E-10,,
,9.723006,-5.49E-10,,
,9.725006,-5.50E-10,,
,9.727006,-5.50E-10,,
,9.729006,-5.50E-10,,
,9.731006,-5.50E-10,,
,9.733006,-5.50E-10,,
,9.735006,-5.50E-10,,
,9.737006,-5.50E-10,,
,9.739006,-5.50E-10,,
,9.741006,-5.51E-10,,
,9.743006,-5.51E-10,,
,9.745006,-5.51E-10,,
,9.747006,-5.51E-10,,
,9.749006,-5.51E-10,,
,9.751006,-5.51E-10,,
,9.753006,-5.51E-10,,
,9.755006,-5.51E-10,,
,9.757006,-5.51E-10,,
,9.759006,-5.52E-10,,
,9.761006,-5.52E-10,,
,9.763006,-5.52E-10,,
,9.765006,-5.52E-10,,
,9.767006,-5.52E-10,,
,9.769006,-5.52E-10,,
,9.771006,-5.52E-10,,
,9.773006,-5.52E-10,,
,9.775006,-5.52E-10,,
,9.777006,-5.52E-10,,
,9.779006,-5.52E-10,,
,9.781006,-5.52E-10,,
,9.783006,-5.52E-10,,
,9.785006,-5.51E-10,,
,9.787006,-5.51E-10,,
,9.789006,-5.51E-10,,
,9.791006,-5.52E-10,,
,9.793006,-5.52E-10,,
,9.795006,-5.52E-10,,
,9.797006,-5.52E-10,,
,9.799006,-5.52E-10,,
,9.801006,-5.51E-10,,
,9.803006,-5.51E-10,,
,9.805006,-5.51E-10,,
,9.807006,-5.52E-10,,
,9.809006,-5.52E-10,,
,9.811006,-5.52E-10,,
,9.813006,-5.52E-10,,
,9.815006,-5.52E-10,,
,9.817006,-5.52E-10,,
,9.819006,-5.52E-10,,
,9.821006,-5.52E-10,,
,9.823006,-5.53E-10,,
,9.825006,-5.54E-10,,
,9.827006,-5.55E-10,,
,9.829006,-5.55E-10,,
,9.831006,-5.56E-10,,
,9.833006,-5.57E-10,,
,9.835006,-5.57E-10,,
,9.837006,-5.58E-10,,
,9.839006,-5.59E-10,,
,9.841006,-5.60E-10,,
,9.843006,-5.61E-10,,
,9.845006,-5.62E-10,,
,9.847006,-5.63E-10,,
,9.849006,-5.64E-10,,
,9.851006,-5.65E-10,,
,9.853006,-5.65E-10,,
,9.855006,-5.66E-10,,
,9.857006,-5.67E-10,,
,9.859006,-5.68E-10,,
,9.861006,-5.69E-10,,
,9.863006,-5.69E-10,,
,9.865006,-5.69E-10,,
,9.867006,-5.69E-10,,
,9.869006,-5.69E-10,,
,9.871006,-5.70E-10,,
,9.873006,-5.70E-10,,
,9.875006,-5.70E-10,,
,9.877006,-5.70E-10,,
,9.879006,-5.69E-10,,
,9.881006,-5.68E-10,,
,9.883006,-5.67E-10,,
,9.885006,-5.66E-10,,
,9.887006,-5.65E-10,,
,9.889006,-5.63E-10,,
,9.891006,-5.62E-10,,
,9.893006,-5.60E-10,,
,9.895006,-5.58E-10,,
,9.897006,-5.57E-10,,
,9.899006,-5.54E-10,,
,9.901006,-5.52E-10,,
,9.903006,-5.49E-10,,
,9.905006,-5.47E-10,,
,9.907006,-5.44E-10,,
,9.909006,-5.42E-10,,
,9.911006,-5.39E-10,,
,9.913006,-5.35E-10,,
,9.915006,-5.32E-10,,
,9.917006,-5.28E-10,,
,9.919006,-5.25E-10,,
,9.921006,-5.22E-10,,
,9.923006,-5.18E-10,,
,9.925006,-5.15E-10,,
,9.927006,-5.12E-10,,
,9.929006,-5.08E-10,,
,9.931006,-5.04E-10,,
,9.933006,-5.01E-10,,
,9.935006,-4.97E-10,,
,9.937006,-4.94E-10,,
,9.939006,-4.91E-10,,
,9.941006,-4.87E-10,,
,9.943006,-4.84E-10,,
,9.945006,-4.81E-10,,
,9.947006,-4.78E-10,,
,9.949006,-4.75E-10,,
,9.951006,-4.72E-10,,
,9.953006,-4.69E-10,,
,9.955006,-4.66E-10,,
,9.957006,-4.63E-10,,
,9.959006,-4.61E-10,,
,9.961006,-4.58E-10,,
,9.963006,-4.56E-10,,
,9.965006,-4.54E-10,,
,9.967006,-4.51E-10,,
,9.969006,-4.49E-10,,
,9.971006,-4.47E-10,,
,9.973006,-4.46E-10,,
,9.975006,-4.45E-10,,
,9.977006,-4.43E-10,,
,9.979006,-4.42E-10,,
,9.981006,-4.41E-10,,
,9.983006,-4.39E-10,,
,9.985006,-4.38E-10,,
,9.987006,-4.37E-10,,
,9.989006,-4.36E-10,,
,9.991006,-4.35E-10,,
,9.993006,-4.35E-10,,
,9.995006,-4.34E-10,,
,9.997006,-4.34E-10,,
,9.999006,-4.33E-10,,
,10.001006,-4.32E-10,,
,10.003006,-4.31E-10,,
,10.005006,-4.31E-10,,
,10.007006,-4.31E-10,,
,10.009006,-4.31E-10,,
,10.011006,-4.31E-10,,
,10.013006,-4.31E-10,,
,10.015006,-4.31E-10,,
,10.017006,-4.30E-10,,
,10.019006,-4.30E-10,,
,10.021006,-4.30E-10,,
,10.023006,-4.29E-10,,
,10.025006,-4.30E-10,,
,10.027006,-4.30E-10,,
,10.029006,-4.30E-10,,
,10.031006,-4.29E-10,,
,10.033006,-4.29E-10,,
,10.035006,-4.29E-10,,
,10.037006,-4.29E-10,,
,10.039006,-4.28E-10,,
,10.041006,-4.29E-10,,
,10.043006,-4.28E-10,,
,10.045006,-4.28E-10,,
,10.047006,-4.28E-10,,
,10.049006,-4.27E-10,,
,10.051006,-4.27E-10,,
,10.053006,-4.26E-10,,
,10.055006,-4.25E-10,,
,10.057006,-4.25E-10,,
,10.059006,-4.25E-10,,
,10.061006,-4.24E-10,,
,10.063006,-4.24E-10,,
,10.065006,-4.23E-10,,
,10.067006,-4.22E-10,,
,10.069006,-4.21E-10,,
,10.071006,-4.20E-10,,
,10.073006,-4.20E-10,,
,10.075006,-4.19E-10,,
,10.077006,-4.18E-10,,
,10.079006,-4.17E-10,,
,10.081006,-4.16E-10,,
,10.083006,-4.15E-10,,
,10.085006,-4.14E-10,,
,10.087006,-4.13E-10,,
,10.089006,-4.12E-10,,
,10.091006,-4.12E-10,,
,10.093006,-4.11E-10,,
,10.095006,-4.10E-10,,
,10.097006,-4.09E-10,,
,10.099006,-4.08E-10,,
,10.101006,-4.07E-10,,
,10.103006,-4.06E-10,,
,10.105006,-4.05E-10,,
,10.107006,-4.04E-10,,
,10.109006,-4.03E-10,,
,10.111006,-4.03E-10,,
,10.113006,-4.02E-10,,
,10.115006,-4.01E-10,,
,10.117006,-4.00E-10,,
,10.119006,-3.99E-10,,
,10.121006,-3.98E-10,,
,10.123006,-3.97E-10,,
,10.125006,-3.97E-10,,
,10.127006,-3.97E-10,,
,10.129006,-3.96E-10,,
,10.131006,-3.96E-10,,
,10.133006,-3.95E-10,,
,10.135006,-3.94E-10,,
,10.137006,-3.94E-10,,
,10.139006,-3.93E-10,,
,10.141006,-3.93E-10,,
,10.143006,-3.93E-10,,
,10.145006,-3.93E-10,,
,10.147006,-3.92E-10,,
,10.149006,-3.92E-10,,
,10.151006,-3.91E-10,,
,10.153006,-3.90E-10,,
,10.155006,-3.90E-10,,
,10.157006,-3.89E-10,,
,10.159006,-3.90E-10,,
,10.161006,-3.89E-10,,
,10.163006,-3.89E-10,,
,10.165006,-3.88E-10,,
,10.167006,-3.88E-10,,
,10.169006,-3.87E-10,,
,10.171006,-3.87E-10,,
,10.173006,-3.87E-10,,
,10.175006,-3.87E-10,,
,10.177006,-3.87E-10,,
,10.179006,-3.87E-10,,
,10.181006,-3.86E-10,,
,10.183006,-3.85E-10,,
,10.185006,-3.85E-10,,
,10.187006,-3.84E-10,,
,10.189006,-3.84E-10,,
,10.191006,-3.84E-10,,
,10.193006,-3.84E-10,,
,10.195006,-3.84E-10,,
,10.197006,-3.83E-10,,
,10.199006,-3.83E-10,,
,10.201006,-3.82E-10,,
,10.203006,-3.82E-10,,
,10.205006,-3.82E-10,,
,10.207006,-3.81E-10,,
,10.209006,-3.81E-10,,
,10.211006,-3.81E-10,,
,10.213006,-3.80E-10,,
,10.215006,-3.79E-10,,
,10.217006,-3.78E-10,,
,10.219006,-3.77E-10,,
,10.221006,-3.77E-10,,
,10.223006,-3.76E-10,,
,10.225006,-3.76E-10,,
,10.227006,-3.76E-10,,
,10.229006,-3.75E-10,,
,10.231006,-3.74E-10,,
,10.233006,-3.73E-10,,
,10.235006,-3.71E-10,,
,10.237006,-3.70E-10,,
,10.239006,-3.70E-10,,
,10.241006,-3.69E-10,,
,10.243006,-3.68E-10,,
,10.245006,-3.66E-10,,
,10.247006,-3.65E-10,,
,10.249006,-3.63E-10,,
,10.251006,-3.62E-10,,
,10.253006,-3.60E-10,,
,10.255006,-3.59E-10,,
,10.257006,-3.58E-10,,
,10.259006,-3.57E-10,,
,10.261006,-3.56E-10,,
,10.263006,-3.54E-10,,
,10.265006,-3.53E-10,,
,10.267006,-3.51E-10,,
,10.269006,-3.50E-10,,
,10.271006,-3.48E-10,,
,10.273006,-3.47E-10,,
,10.275006,-3.46E-10,,
,10.277006,-3.45E-10,,
,10.279006,-3.44E-10,,
,10.281006,-3.42E-10,,
,10.283006,-3.41E-10,,
,10.285006,-3.39E-10,,
,10.287006,-3.38E-10,,
,10.289006,-3.36E-10,,
,10.291006,-3.35E-10,,
,10.293006,-3.34E-10,,
,10.295006,-3.33E-10,,
,10.297006,-3.31E-10,,
,10.299006,-3.30E-10,,
,10.301006,-3.29E-10,,
,10.303006,-3.28E-10,,
,10.305006,-3.27E-10,,
,10.307006,-3.26E-10,,
,10.309006,-3.26E-10,,
,10.311006,-3.25E-10,,
,10.313006,-3.24E-10,,
,10.315006,-3.23E-10,,
,10.317006,-3.21E-10,,
,10.319006,-3.20E-10,,
,10.321006,-3.19E-10,,
,10.323006,-3.18E-10,,
,10.325006,-3.18E-10,,
,10.327006,-3.17E-10,,
,10.329006,-3.17E-10,,
,10.331006,-3.16E-10,,
,10.333006,-3.15E-10,,
,10.335006,-3.14E-10,,
,10.337006,-3.13E-10,,
,10.339006,-3.12E-10,,
,10.341006,-3.11E-10,,
,10.343006,-3.11E-10,,
,10.345006,-3.10E-10,,
,10.347006,-3.09E-10,,
,10.349006,-3.07E-10,,
,10.351006,-3.06E-10,,
,10.353006,-3.05E-10,,
,10.355006,-3.04E-10,,
,10.357006,-3.04E-10,,
,10.359006,-3.03E-10,,
,10.361006,-3.03E-10,,
,10.363006,-3.02E-10,,
,10.365006,-3.01E-10,,
,10.367006,-3.00E-10,,
,10.369006,-2.99E-10,,
,10.371006,-2.98E-10,,
,10.373006,-2.97E-10,,
,10.375006,-2.96E-10,,
,10.377006,-2.96E-10,,
,10.379006,-2.95E-10,,
,10.381006,-2.94E-10,,
,10.383006,-2.93E-10,,
,10.385006,-2.92E-10,,
,10.387006,-2.91E-10,,
,10.389006,-2.90E-10,,
,10.391006,-2.90E-10,,
,10.393006,-2.89E-10,,
,10.395006,-2.89E-10,,
,10.397006,-2.88E-10,,
,10.399006,-2.87E-10,,
,10.401006,-2.85E-10,,
,10.403006,-2.85E-10,,
,10.405006,-2.84E-10,,
,10.407006,-2.83E-10,,
,10.409006,-2.82E-10,,
,10.411006,-2.82E-10,,
,10.413006,-2.81E-10,,
,10.415006,-2.80E-10,,
,10.417006,-2.78E-10,,
,10.419006,-2.77E-10,,
,10.421006,-2.76E-10,,
,10.423006,-2.75E-10,,
,10.425006,-2.74E-10,,
,10.427006,-2.73E-10,,
,10.429006,-2.72E-10,,
,10.431006,-2.71E-10,,
,10.433006,-2.70E-10,,
,10.435006,-2.68E-10,,
,10.437006,-2.67E-10,,
,10.439006,-2.66E-10,,
,10.441006,-2.65E-10,,
,10.443006,-2.64E-10,,
,10.445006,-2.63E-10,,
,10.447006,-2.62E-10,,
,10.449006,-2.60E-10,,
,10.451006,-2.58E-10,,
,10.453006,-2.57E-10,,
,10.455006,-2.55E-10,,
,10.457006,-2.54E-10,,
,10.459006,-2.54E-10,,
,10.461006,-2.53E-10,,
,10.463006,-2.51E-10,,
,10.465006,-2.50E-10,,
,10.467006,-2.49E-10,,
,10.469006,-2.48E-10,,
,10.471006,-2.47E-10,,
,10.473006,-2.46E-10,,
,10.475006,-2.45E-10,,
,10.477006,-2.44E-10,,
,10.479006,-2.43E-10,,
,10.481006,-2.42E-10,,
,10.483006,-2.41E-10,,
,10.485006,-2.40E-10,,
,10.487006,-2.39E-10,,
,10.489006,-2.38E-10,,
,10.491006,-2.38E-10,,
,10.493006,-2.37E-10,,
,10.495006,-2.37E-10,,
,10.497006,-2.37E-10,,
,10.499006,-2.36E-10,,
,10.501006,-2.35E-10,,
,10.503006,-2.34E-10,,
,10.505006,-2.34E-10,,
,10.507006,-2.34E-10,,
,10.509006,-2.33E-10,,
,10.511006,-2.33E-10,,
,10.513006,-2.33E-10,,
,10.515006,-2.32E-10,,
,10.517006,-2.31E-10,,
,10.519006,-2.31E-10,,
,10.521006,-2.31E-10,,
,10.523006,-2.30E-10,,
,10.525006,-2.31E-10,,
,10.527006,-2.30E-10,,
,10.529006,-2.30E-10,,
,10.531006,-2.29E-10,,
,10.533006,-2.29E-10,,
,10.535006,-2.29E-10,,
,10.537006,-2.29E-10,,
,10.539006,-2.29E-10,,
,10.541006,-2.29E-10,,
,10.543006,-2.29E-10,,
,10.545006,-2.28E-10,,
,10.547006,-2.28E-10,,
,10.549006,-2.28E-10,,
,10.551006,-2.27E-10,,
,10.553006,-2.27E-10,,
,10.555006,-2.27E-10,,
,10.557006,-2.27E-10,,
,10.559006,-2.28E-10,,
,10.561006,-2.28E-10,,
,10.563006,-2.28E-10,,
,10.565006,-2.28E-10,,
,10.567006,-2.27E-10,,
,10.569006,-2.27E-10,,
,10.571006,-2.27E-10,,
,10.573006,-2.28E-10,,
,10.575006,-2.28E-10,,
,10.577006,-2.28E-10,,
,10.579006,-2.28E-10,,
,10.581006,-2.28E-10,,
,10.583006,-2.28E-10,,
,10.585006,-2.28E-10,,
,10.587006,-2.28E-10,,
,10.589006,-2.28E-10,,
,10.591006,-2.28E-10,,
,10.593006,-2.28E-10,,
,10.595006,-2.28E-10,,
,10.597006,-2.28E-10,,
,10.599006,-2.28E-10,,
,10.601006,-2.28E-10,,
,10.603006,-2.28E-10,,
,10.605006,-2.28E-10,,
,10.607006,-2.28E-10,,
,10.609006,-2.28E-10,,
,10.611006,-2.28E-10,,
,10.613006,-2.27E-10,,
,10.615006,-2.27E-10,,
,10.617006,-2.27E-10,,
,10.619006,-2.26E-10,,
,10.621006,-2.25E-10,,
,10.623006,-2.25E-10,,
,10.625006,-2.24E-10,,
,10.627006,-2.24E-10,,
,10.629006,-2.24E-10,,
,10.631006,-2.23E-10,,
,10.633006,-2.22E-10,,
,10.635006,-2.20E-10,,
,10.637006,-2.19E-10,,
,10.639006,-2.18E-10,,
,10.641006,-2.17E-10,,
,10.643006,-2.17E-10,,
,10.645006,-2.15E-10,,
,10.647006,-2.14E-10,,
,10.649006,-2.12E-10,,
,10.651006,-2.11E-10,,
,10.653006,-2.09E-10,,
,10.655006,-2.08E-10,,
,10.657006,-2.07E-10,,
,10.659006,-2.06E-10,,
,10.661006,-2.04E-10,,
,10.663006,-2.03E-10,,
,10.665006,-2.01E-10,,
,10.667006,-1.99E-10,,
,10.669006,-1.98E-10,,
,10.671006,-1.96E-10,,
,10.673006,-1.95E-10,,
,10.675006,-1.94E-10,,
,10.677006,-1.93E-10,,
,10.679006,-1.92E-10,,
,10.681006,-1.90E-10,,
,10.683006,-1.88E-10,,
,10.685006,-1.87E-10,,
,10.687006,-1.85E-10,,
,10.689006,-1.84E-10,,
,10.691006,-1.83E-10,,
,10.693006,-1.82E-10,,
,10.695006,-1.81E-10,,
,10.697006,-1.80E-10,,
,10.699006,-1.78E-10,,
,10.701006,-1.77E-10,,
,10.703006,-1.75E-10,,
,10.705006,-1.74E-10,,
,10.707006,-1.73E-10,,
,10.709006,-1.72E-10,,
,10.711006,-1.71E-10,,
,10.713006,-1.69E-10,,
,10.715006,-1.67E-10,,
,10.717006,-1.64E-10,,
,10.719006,-1.62E-10,,
,10.721006,-1.60E-10,,
,10.723006,-1.57E-10,,
,10.725006,-1.55E-10,,
,10.727006,-1.52E-10,,
,10.729006,-1.49E-10,,
,10.731006,-1.46E-10,,
,10.733006,-1.42E-10,,
,10.735006,-1.38E-10,,
,10.737006,-1.34E-10,,
,10.739006,-1.30E-10,,
,10.741006,-1.26E-10,,
,10.743006,-1.22E-10,,
,10.745006,-1.17E-10,,
,10.747006,-1.11E-10,,
,10.749006,-1.06E-10,,
,10.751006,-9.94E-11,,
,10.753006,-9.34E-11,,
,10.755006,-8.74E-11,,
,10.757006,-8.15E-11,,
,10.759006,-7.52E-11,,
,10.761006,-6.87E-11,,
,10.763006,-6.22E-11,,
,10.765006,-5.54E-11,,
,10.767006,-4.83E-11,,
,10.769006,-4.13E-11,,
,10.771006,-3.43E-11,,
,10.773006,-2.74E-11,,
,10.775006,-2.03E-11,,
,10.777006,-1.30E-11,,
,10.779006,-5.82E-12,,
,10.781006,1.59E-12,,
,10.783006,8.67E-12,,
,10.785006,1.60E-11,,
,10.787006,2.28E-11,,
,10.789006,2.93E-11,,
,10.791006,3.54E-11,,
,10.793006,4.14E-11,,
,10.795006,4.75E-11,,
,10.797006,5.34E-11,,
,10.799006,5.91E-11,,
,10.801006,6.46E-11,,
,10.803006,6.99E-11,,
,10.805006,7.49E-11,,
,10.807006,7.94E-11,,
,10.809006,8.37E-11,,
,10.811006,8.76E-11,,
,10.813006,9.15E-11,,
,10.815006,9.53E-11,,
,10.817006,9.88E-11,,
,10.819006,1.02E-10,,
,10.821006,1.05E-10,,
,10.823006,1.07E-10,,
,10.825006,1.08E-10,,
,10.827006,1.10E-10,,
,10.829006,1.12E-10,,
,10.831006,1.14E-10,,
,10.833006,1.15E-10,,
,10.835006,1.16E-10,,
,10.837006,1.17E-10,,
,10.839006,1.18E-10,,
,10.841006,1.18E-10,,
,10.843006,1.18E-10,,
,10.845006,1.18E-10,,
,10.847006,1.18E-10,,
,10.849006,1.18E-10,,
,10.851006,1.18E-10,,
,10.853006,1.18E-10,,
,10.855006,1.18E-10,,
,10.857006,1.17E-10,,
,10.859006,1.17E-10,,
,10.861006,1.16E-10,,
,10.863006,1.15E-10,,
,10.865006,1.14E-10,,
,10.867006,1.13E-10,,
,10.869006,1.12E-10,,
,10.871006,1.11E-10,,
,10.873006,1.10E-10,,
,10.875006,1.08E-10,,
,10.877006,1.07E-10,,
,10.879006,1.06E-10,,
,10.881006,1.05E-10,,
,10.883006,1.04E-10,,
,10.885006,1.03E-10,,
,10.887006,1.02E-10,,
,10.889006,1.01E-10,,
,10.891006,9.88E-11,,
,10.893006,9.72E-11,,
,10.895006,9.56E-11,,
,10.897006,9.43E-11,,
,10.899006,9.32E-11,,
,10.901006,9.22E-11,,
,10.903006,9.12E-11,,
,10.905006,9.02E-11,,
,10.907006,8.84E-11,,
,10.909006,8.70E-11,,
,10.911006,8.56E-11,,
,10.913006,8.50E-11,,
,10.915006,8.41E-11,,
,10.917006,8.35E-11,,
,10.919006,8.26E-11,,
,10.921006,8.17E-11,,
,10.923006,8.05E-11,,
,10.925006,7.92E-11,,
,10.927006,7.80E-11,,
,10.929006,7.68E-11,,
,10.931006,7.59E-11,,
,10.933006,7.51E-11,,
,10.935006,7.44E-11,,
,10.937006,7.37E-11,,
,10.939006,7.28E-11,,
,10.941006,7.19E-11,,
,10.943006,7.10E-11,,
,10.945006,7.02E-11,,
,10.947006,6.93E-11,,
,10.949006,6.86E-11,,
,10.951006,6.81E-11,,
,10.953006,6.77E-11,,
,10.955006,6.69E-11,,
,10.957006,6.56E-11,,
,10.959006,6.42E-11,,
,10.961006,6.30E-11,,
,10.963006,6.20E-11,,
,10.965006,6.11E-11,,
,10.967006,6.02E-11,,
,10.969006,5.94E-11,,
,10.971006,5.84E-11,,
,10.973006,5.71E-11,,
,10.975006,5.53E-11,,
,10.977006,5.37E-11,,
,10.979006,5.20E-11,,
,10.981006,5.09E-11,,
,10.983006,4.97E-11,,
,10.985006,4.83E-11,,
,10.987006,4.67E-11,,
,10.989006,4.47E-11,,
,10.991006,4.27E-11,,
,10.993006,4.08E-11,,
,10.995006,3.89E-11,,
,10.997006,3.73E-11,,
,10.999006,3.55E-11,,
,11.001006,3.37E-11,,
,11.003006,3.14E-11,,
,11.005006,2.93E-11,,
,11.007006,2.66E-11,,
,11.009006,2.40E-11,,
,11.011006,2.12E-11,,
,11.013006,1.92E-11,,
,11.015006,1.72E-11,,
,11.017006,1.53E-11,,
,11.019006,1.32E-11,,
,11.021006,1.10E-11,,
,11.023006,8.67E-12,,
,11.025006,6.20E-12,,
,11.027006,3.73E-12,,
,11.029006,1.16E-12,,
,11.031006,-1.21E-12,,
