5/8/2019, 11:09:00 AM ,,,
 Current Sensitivity ,1.00E-09,,,
 This file comes from It only measurement ,0.00E+00,,,
 Sampling rate ,500,,,
 Number of samples per channel ,-1,,,
 No filter from Labview , , , ,
 , ,,,
 ***End_of_Header*** ,,,,
 , Time , Current , Filtered Current , 
,-0.001995,-1.33E-12,,
,4.88E-06,-2.56E-12,,
,0.002005,-3.78E-12,,
,0.004005,-3.78E-12,,
,0.006005,-4.10E-12,,
,0.008005,-4.43E-12,,
,0.010005,-4.64E-12,,
,0.012005,-4.21E-12,,
,0.014005,-3.57E-12,,
,0.016005,-2.92E-12,,
,0.018005,-2.39E-12,,
,0.020005,-2.28E-12,,
,0.022005,-2.28E-12,,
,0.024005,-2.71E-12,,
,0.026005,-2.92E-12,,
,0.028005,-2.92E-12,,
,0.030005,-2.49E-12,,
,0.032005,-1.96E-12,,
,0.034005,-1.53E-12,,
,0.036005,-1.64E-12,,
,0.038005,-1.96E-12,,
,0.040005,-2.28E-12,,
,0.042005,-2.28E-12,,
,0.044005,-2.07E-12,,
,0.046005,-1.74E-12,,
,0.048005,-1.53E-12,,
,0.050005,-1.10E-12,,
,0.052005,-9.92E-13,,
,0.054005,-1.10E-12,,
,0.056005,-1.42E-12,,
,0.058005,-1.64E-12,,
,0.060005,-1.74E-12,,
,0.062005,-1.64E-12,,
,0.064005,-1.42E-12,,
,0.066005,-9.92E-13,,
,0.068005,-9.92E-13,,
,0.070005,-9.92E-13,,
,0.072005,-1.42E-12,,
,0.074005,-1.74E-12,,
,0.076005,-1.96E-12,,
,0.078005,-1.85E-12,,
,0.080005,-1.74E-12,,
,0.082005,-1.53E-12,,
,0.084005,-1.10E-12,,
,0.086005,-8.84E-13,,
,0.088005,-1.10E-12,,
,0.090005,-1.74E-12,,
,0.092005,-2.07E-12,,
,0.094005,-1.96E-12,,
,0.096005,-1.64E-12,,
,0.098005,-1.21E-12,,
,0.100005,-9.92E-13,,
,0.102005,-7.77E-13,,
,0.104005,-1.10E-12,,
,0.106005,-1.31E-12,,
,0.108005,-1.74E-12,,
,0.110005,-1.42E-12,,
,0.112005,-1.31E-12,,
,0.114005,-7.77E-13,,
,0.116005,-3.47E-13,,
,0.118005,2.97E-13,,
,0.120005,4.04E-13,,
,0.122005,8.20E-14,,
,0.124005,-5.62E-13,,
,0.126005,-5.62E-13,,
,0.128005,-1.33E-13,,
,0.130005,8.34E-13,,
,0.132005,1.69E-12,,
,0.134005,2.23E-12,,
,0.136005,2.55E-12,,
,0.138005,2.66E-12,,
,0.140005,2.55E-12,,
,0.142005,2.44E-12,,
,0.144005,2.77E-12,,
,0.146005,3.41E-12,,
,0.148005,4.38E-12,,
,0.150005,5.24E-12,,
,0.152005,5.99E-12,,
,0.154005,6.31E-12,,
,0.156005,6.52E-12,,
,0.158005,6.85E-12,,
,0.160005,7.27E-12,,
,0.162005,7.81E-12,,
,0.164005,8.46E-12,,
,0.166005,9.42E-12,,
,0.168005,1.01E-11,,
,0.170005,1.07E-11,,
,0.172005,1.08E-11,,
,0.174005,1.11E-11,,
,0.176005,1.16E-11,,
,0.178005,1.24E-11,,
,0.180005,1.36E-11,,
,0.182005,1.48E-11,,
,0.184005,1.61E-11,,
,0.186005,1.69E-11,,
,0.188005,1.75E-11,,
,0.190005,1.78E-11,,
,0.192005,1.84E-11,,
,0.194005,1.96E-11,,
,0.196005,2.11E-11,,
,0.198005,2.28E-11,,
,0.200005,2.46E-11,,
,0.202005,2.58E-11,,
,0.204005,2.67E-11,,
,0.206005,2.72E-11,,
,0.208005,2.82E-11,,
,0.210005,2.94E-11,,
,0.212005,3.10E-11,,
,0.214005,3.28E-11,,
,0.216005,3.47E-11,,
,0.218005,3.63E-11,,
,0.220005,3.77E-11,,
,0.222005,3.88E-11,,
,0.224005,4.03E-11,,
,0.226005,4.18E-11,,
,0.228005,4.36E-11,,
,0.230005,4.55E-11,,
,0.232005,4.75E-11,,
,0.234005,4.97E-11,,
,0.236005,5.12E-11,,
,0.238005,5.23E-11,,
,0.240005,5.35E-11,,
,0.242005,5.46E-11,,
,0.244005,5.63E-11,,
,0.246005,5.79E-11,,
,0.248005,6.02E-11,,
,0.250005,6.21E-11,,
,0.252005,6.39E-11,,
,0.254005,6.54E-11,,
,0.256005,6.65E-11,,
,0.258005,6.75E-11,,
,0.260005,6.87E-11,,
,0.262005,7.03E-11,,
,0.264005,7.22E-11,,
,0.266005,7.39E-11,,
,0.268005,7.54E-11,,
,0.270005,7.68E-11,,
,0.272005,7.76E-11,,
,0.274005,7.82E-11,,
,0.276005,7.91E-11,,
,0.278005,8.04E-11,,
,0.280005,8.21E-11,,
,0.282005,8.36E-11,,
,0.284005,8.53E-11,,
,0.286005,8.65E-11,,
,0.288005,8.76E-11,,
,0.290005,8.83E-11,,
,0.292005,8.92E-11,,
,0.294005,9.03E-11,,
,0.296005,9.18E-11,,
,0.298005,9.32E-11,,
,0.300005,9.46E-11,,
,0.302005,9.55E-11,,
,0.304005,9.68E-11,,
,0.306005,9.78E-11,,
,0.308005,9.90E-11,,
,0.310005,9.99E-11,,
,0.312005,1.02E-10,,
,0.314005,1.04E-10,,
,0.316005,1.06E-10,,
,0.318005,1.08E-10,,
,0.320005,1.09E-10,,
,0.322005,1.11E-10,,
,0.324005,1.12E-10,,
,0.326005,1.14E-10,,
,0.328005,1.16E-10,,
,0.330005,1.18E-10,,
,0.332005,1.21E-10,,
,0.334005,1.23E-10,,
,0.336005,1.26E-10,,
,0.338005,1.28E-10,,
,0.340005,1.30E-10,,
,0.342005,1.33E-10,,
,0.344005,1.35E-10,,
,0.346005,1.38E-10,,
,0.348005,1.41E-10,,
,0.350005,1.44E-10,,
,0.352005,1.47E-10,,
,0.354005,1.50E-10,,
,0.356005,1.53E-10,,
,0.358005,1.55E-10,,
,0.360005,1.58E-10,,
,0.362005,1.62E-10,,
,0.364005,1.65E-10,,
,0.366005,1.69E-10,,
,0.368005,1.72E-10,,
,0.370005,1.75E-10,,
,0.372005,1.78E-10,,
,0.374005,1.81E-10,,
,0.376005,1.84E-10,,
,0.378005,1.88E-10,,
,0.380005,1.91E-10,,
,0.382005,1.95E-10,,
,0.384005,1.98E-10,,
,0.386005,2.02E-10,,
,0.388005,2.05E-10,,
,0.390005,2.09E-10,,
,0.392005,2.12E-10,,
,0.394005,2.16E-10,,
,0.396005,2.20E-10,,
,0.398005,2.24E-10,,
,0.400005,2.28E-10,,
,0.402005,2.32E-10,,
,0.404005,2.36E-10,,
,0.406005,2.40E-10,,
,0.408005,2.44E-10,,
,0.410005,2.48E-10,,
,0.412005,2.52E-10,,
,0.414005,2.57E-10,,
,0.416005,2.62E-10,,
,0.418005,2.66E-10,,
,0.420005,2.71E-10,,
,0.422005,2.75E-10,,
,0.424005,2.79E-10,,
,0.426005,2.84E-10,,
,0.428005,2.88E-10,,
,0.430005,2.93E-10,,
,0.432005,2.99E-10,,
,0.434005,3.04E-10,,
,0.436005,3.08E-10,,
,0.438005,3.13E-10,,
,0.440005,3.17E-10,,
,0.442005,3.22E-10,,
,0.444005,3.27E-10,,
,0.446005,3.32E-10,,
,0.448005,3.37E-10,,
,0.450005,3.42E-10,,
,0.452005,3.47E-10,,
,0.454005,3.52E-10,,
,0.456005,3.57E-10,,
,0.458005,3.61E-10,,
,0.460005,3.66E-10,,
,0.462005,3.70E-10,,
,0.464005,3.76E-10,,
,0.466005,3.81E-10,,
,0.468005,3.85E-10,,
,0.470005,3.89E-10,,
,0.472005,3.93E-10,,
,0.474005,3.97E-10,,
,0.476005,4.01E-10,,
,0.478005,4.06E-10,,
,0.480005,4.10E-10,,
,0.482005,4.15E-10,,
,0.484005,4.19E-10,,
,0.486005,4.22E-10,,
,0.488005,4.26E-10,,
,0.490005,4.29E-10,,
,0.492005,4.32E-10,,
,0.494005,4.35E-10,,
,0.496005,4.38E-10,,
,0.498005,4.42E-10,,
,0.500005,4.45E-10,,
,0.502005,4.48E-10,,
,0.504005,4.50E-10,,
,0.506005,4.51E-10,,
,0.508005,4.53E-10,,
,0.510005,4.55E-10,,
,0.512005,4.57E-10,,
,0.514005,4.59E-10,,
,0.516005,4.61E-10,,
,0.518005,4.63E-10,,
,0.520005,4.64E-10,,
,0.522005,4.65E-10,,
,0.524005,4.65E-10,,
,0.526005,4.65E-10,,
,0.528005,4.66E-10,,
,0.530005,4.67E-10,,
,0.532005,4.68E-10,,
,0.534005,4.68E-10,,
,0.536005,4.69E-10,,
,0.538005,4.68E-10,,
,0.540005,4.68E-10,,
,0.542005,4.67E-10,,
,0.544005,4.67E-10,,
,0.546005,4.67E-10,,
,0.548005,4.67E-10,,
,0.550005,4.66E-10,,
,0.552005,4.66E-10,,
,0.554005,4.65E-10,,
,0.556005,4.63E-10,,
,0.558005,4.62E-10,,
,0.560005,4.61E-10,,
,0.562005,4.60E-10,,
,0.564005,4.58E-10,,
,0.566005,4.57E-10,,
,0.568005,4.56E-10,,
,0.570005,4.54E-10,,
,0.572005,4.51E-10,,
,0.574005,4.48E-10,,
,0.576005,4.45E-10,,
,0.578005,4.42E-10,,
,0.580005,4.40E-10,,
,0.582005,4.37E-10,,
,0.584005,4.35E-10,,
,0.586005,4.31E-10,,
,0.588005,4.27E-10,,
,0.590005,4.23E-10,,
,0.592005,4.19E-10,,
,0.594005,4.15E-10,,
,0.596005,4.11E-10,,
,0.598005,4.07E-10,,
,0.600005,4.03E-10,,
,0.602005,3.98E-10,,
,0.604005,3.92E-10,,
,0.606005,3.87E-10,,
,0.608005,3.81E-10,,
,0.610005,3.75E-10,,
,0.612005,3.70E-10,,
,0.614005,3.64E-10,,
,0.616005,3.58E-10,,
,0.618005,3.52E-10,,
,0.620005,3.46E-10,,
,0.622005,3.40E-10,,
,0.624005,3.33E-10,,
,0.626005,3.27E-10,,
,0.628005,3.21E-10,,
,0.630005,3.15E-10,,
,0.632005,3.09E-10,,
,0.634005,3.03E-10,,
,0.636005,2.97E-10,,
,0.638005,2.90E-10,,
,0.640005,2.83E-10,,
,0.642005,2.76E-10,,
,0.644005,2.70E-10,,
,0.646005,2.64E-10,,
,0.648005,2.58E-10,,
,0.650005,2.52E-10,,
,0.652005,2.47E-10,,
,0.654005,2.41E-10,,
,0.656005,2.35E-10,,
,0.658005,2.29E-10,,
,0.660005,2.23E-10,,
,0.662005,2.17E-10,,
,0.664005,2.12E-10,,
,0.666005,2.07E-10,,
,0.668005,2.02E-10,,
,0.670005,1.97E-10,,
,0.672005,1.91E-10,,
,0.674005,1.86E-10,,
,0.676005,1.81E-10,,
,0.678005,1.76E-10,,
,0.680005,1.72E-10,,
,0.682005,1.68E-10,,
,0.684005,1.64E-10,,
,0.686005,1.60E-10,,
,0.688005,1.55E-10,,
,0.690005,1.51E-10,,
,0.692005,1.47E-10,,
,0.694005,1.43E-10,,
,0.696005,1.40E-10,,
,0.698005,1.37E-10,,
,0.700005,1.34E-10,,
,0.702005,1.31E-10,,
,0.704005,1.28E-10,,
,0.706005,1.25E-10,,
,0.708005,1.22E-10,,
,0.710005,1.19E-10,,
,0.712005,1.17E-10,,
,0.714005,1.15E-10,,
,0.716005,1.14E-10,,
,0.718005,1.12E-10,,
,0.720005,1.10E-10,,
,0.722005,1.09E-10,,
,0.724005,1.07E-10,,
,0.726005,1.05E-10,,
,0.728005,1.04E-10,,
,0.730005,1.03E-10,,
,0.732005,1.02E-10,,
,0.734005,1.01E-10,,
,0.736005,1.00E-10,,
,0.738005,9.83E-11,,
,0.740005,9.68E-11,,
,0.742005,9.56E-11,,
,0.744005,9.49E-11,,
,0.746005,9.42E-11,,
,0.748005,9.35E-11,,
,0.750005,9.28E-11,,
,0.752005,9.19E-11,,
,0.754005,9.07E-11,,
,0.756005,8.92E-11,,
,0.758005,8.79E-11,,
,0.760005,8.69E-11,,
,0.762005,8.61E-11,,
,0.764005,8.56E-11,,
,0.766005,8.51E-11,,
,0.768005,8.45E-11,,
,0.770005,8.33E-11,,
,0.772005,8.20E-11,,
,0.774005,8.10E-11,,
,0.776005,8.02E-11,,
,0.778005,7.97E-11,,
,0.780005,7.93E-11,,
,0.782005,7.90E-11,,
,0.784005,7.86E-11,,
,0.786005,7.79E-11,,
,0.788005,7.68E-11,,
,0.790005,7.59E-11,,
,0.792005,7.47E-11,,
,0.794005,7.39E-11,,
,0.796005,7.32E-11,,
,0.798005,7.29E-11,,
,0.800005,7.27E-11,,
,0.802005,7.21E-11,,
,0.804005,7.13E-11,,
,0.806005,7.04E-11,,
,0.808005,6.94E-11,,
,0.810005,6.87E-11,,
,0.812005,6.78E-11,,
,0.814005,6.72E-11,,
,0.816005,6.65E-11,,
,0.818005,6.55E-11,,
,0.820005,6.42E-11,,
,0.822005,6.25E-11,,
,0.824005,6.04E-11,,
,0.826005,5.81E-11,,
,0.828005,5.59E-11,,
,0.830005,5.41E-11,,
,0.832005,5.21E-11,,
,0.834005,4.95E-11,,
,0.836005,4.65E-11,,
,0.838005,4.29E-11,,
,0.840005,3.91E-11,,
,0.842005,3.48E-11,,
,0.844005,3.04E-11,,
,0.846005,2.58E-11,,
,0.848005,2.12E-11,,
,0.850005,1.65E-11,,
,0.852005,1.14E-11,,
,0.854005,5.45E-12,,
,0.856005,-9.92E-13,,
,0.858005,-7.65E-12,,
,0.860005,-1.45E-11,,
,0.862005,-2.16E-11,,
,0.864005,-2.87E-11,,
,0.866005,-3.58E-11,,
,0.868005,-4.33E-11,,
,0.870005,-5.14E-11,,
,0.872005,-6.04E-11,,
,0.874005,-6.95E-11,,
,0.876005,-7.91E-11,,
,0.878005,-8.86E-11,,
,0.880005,-9.84E-11,,
,0.882005,-1.08E-10,,
,0.884005,-1.19E-10,,
,0.886005,-1.29E-10,,
,0.888005,-1.41E-10,,
,0.890005,-1.53E-10,,
,0.892005,-1.66E-10,,
,0.894005,-1.79E-10,,
,0.896005,-1.92E-10,,
,0.898005,-2.05E-10,,
,0.900005,-2.18E-10,,
,0.902005,-2.32E-10,,
,0.904005,-2.47E-10,,
,0.906005,-2.62E-10,,
,0.908005,-2.77E-10,,
,0.910005,-2.92E-10,,
,0.912005,-3.07E-10,,
,0.914005,-3.22E-10,,
,0.916005,-3.36E-10,,
,0.918005,-3.51E-10,,
,0.920005,-3.67E-10,,
,0.922005,-3.83E-10,,
,0.924005,-4.00E-10,,
,0.926005,-4.16E-10,,
,0.928005,-4.32E-10,,
,0.930005,-4.47E-10,,
,0.932005,-4.64E-10,,
,0.934005,-4.80E-10,,
,0.936005,-4.98E-10,,
,0.938005,-5.16E-10,,
,0.940005,-5.35E-10,,
,0.942005,-5.55E-10,,
,0.944005,-5.74E-10,,
,0.946005,-5.95E-10,,
,0.948005,-6.15E-10,,
,0.950005,-6.36E-10,,
,0.952005,-6.58E-10,,
,0.954005,-6.79E-10,,
,0.956005,-7.02E-10,,
,0.958005,-7.25E-10,,
,0.960005,-7.48E-10,,
,0.962005,-7.70E-10,,
,0.964005,-7.92E-10,,
,0.966005,-8.14E-10,,
,0.968005,-8.35E-10,,
,0.970005,-8.58E-10,,
,0.972005,-8.80E-10,,
,0.974005,-9.01E-10,,
,0.976005,-9.22E-10,,
,0.978005,-9.43E-10,,
,0.980005,-9.62E-10,,
,0.982005,-9.81E-10,,
,0.984005,-1.00E-09,,
,0.986005,-1.02E-09,,
,0.988005,-1.04E-09,,
,0.990005,-1.05E-09,,
,0.992005,-1.07E-09,,
,0.994005,-1.09E-09,,
,0.996005,-1.10E-09,,
,0.998005,-1.12E-09,,
,1.000005,-1.13E-09,,
,1.002005,-1.14E-09,,
,1.004005,-1.15E-09,,
,1.006005,-1.17E-09,,
,1.008005,-1.18E-09,,
,1.010005,-1.19E-09,,
,1.012005,-1.20E-09,,
,1.014005,-1.20E-09,,
,1.016005,-1.21E-09,,
,1.018005,-1.22E-09,,
,1.020005,-1.22E-09,,
,1.022005,-1.23E-09,,
,1.024005,-1.23E-09,,
,1.026005,-1.23E-09,,
,1.028005,-1.24E-09,,
,1.030005,-1.24E-09,,
,1.032005,-1.24E-09,,
,1.034005,-1.24E-09,,
,1.036005,-1.24E-09,,
,1.038005,-1.24E-09,,
,1.040005,-1.24E-09,,
,1.042005,-1.23E-09,,
,1.044005,-1.23E-09,,
,1.046005,-1.23E-09,,
,1.048005,-1.22E-09,,
,1.050005,-1.22E-09,,
,1.052005,-1.21E-09,,
,1.054005,-1.21E-09,,
,1.056005,-1.20E-09,,
,1.058005,-1.20E-09,,
,1.060005,-1.19E-09,,
,1.062005,-1.19E-09,,
,1.064005,-1.18E-09,,
,1.066005,-1.17E-09,,
,1.068005,-1.16E-09,,
,1.070005,-1.16E-09,,
,1.072005,-1.15E-09,,
,1.074005,-1.14E-09,,
,1.076005,-1.14E-09,,
,1.078005,-1.13E-09,,
,1.080005,-1.12E-09,,
,1.082005,-1.12E-09,,
,1.084005,-1.11E-09,,
,1.086005,-1.10E-09,,
,1.088005,-1.10E-09,,
,1.090005,-1.09E-09,,
,1.092005,-1.09E-09,,
,1.094005,-1.08E-09,,
,1.096005,-1.08E-09,,
,1.098005,-1.08E-09,,
,1.100005,-1.07E-09,,
,1.102005,-1.07E-09,,
,1.104005,-1.07E-09,,
,1.106005,-1.07E-09,,
,1.108005,-1.07E-09,,
,1.110005,-1.07E-09,,
,1.112005,-1.07E-09,,
,1.114005,-1.07E-09,,
,1.116005,-1.07E-09,,
,1.118005,-1.07E-09,,
,1.120005,-1.07E-09,,
,1.122005,-1.08E-09,,
,1.124005,-1.08E-09,,
,1.126005,-1.09E-09,,
,1.128005,-1.09E-09,,
,1.130005,-1.10E-09,,
,1.132005,-1.11E-09,,
,1.134005,-1.11E-09,,
,1.136005,-1.12E-09,,
,1.138005,-1.13E-09,,
,1.140005,-1.14E-09,,
,1.142005,-1.16E-09,,
,1.144005,-1.17E-09,,
,1.146005,-1.18E-09,,
,1.148005,-1.20E-09,,
,1.150005,-1.21E-09,,
,1.152005,-1.23E-09,,
,1.154005,-1.25E-09,,
,1.156005,-1.27E-09,,
,1.158005,-1.29E-09,,
,1.160005,-1.31E-09,,
,1.162005,-1.34E-09,,
,1.164005,-1.36E-09,,
,1.166005,-1.39E-09,,
,1.168005,-1.42E-09,,
,1.170005,-1.45E-09,,
,1.172005,-1.48E-09,,
,1.174005,-1.52E-09,,
,1.176005,-1.55E-09,,
,1.178005,-1.59E-09,,
,1.180005,-1.63E-09,,
,1.182005,-1.67E-09,,
,1.184005,-1.71E-09,,
,1.186005,-1.76E-09,,
,1.188005,-1.80E-09,,
,1.190005,-1.85E-09,,
,1.192005,-1.90E-09,,
,1.194005,-1.95E-09,,
,1.196005,-2.00E-09,,
,1.198005,-2.05E-09,,
,1.200005,-2.10E-09,,
,1.202005,-2.15E-09,,
,1.204005,-2.20E-09,,
,1.206005,-2.25E-09,,
,1.208005,-2.31E-09,,
,1.210005,-2.36E-09,,
,1.212005,-2.41E-09,,
,1.214005,-2.46E-09,,
,1.216005,-2.51E-09,,
,1.218005,-2.56E-09,,
,1.220005,-2.61E-09,,
,1.222005,-2.66E-09,,
,1.224005,-2.71E-09,,
,1.226005,-2.76E-09,,
,1.228005,-2.81E-09,,
,1.230005,-2.86E-09,,
,1.232005,-2.90E-09,,
,1.234005,-2.95E-09,,
,1.236005,-2.99E-09,,
,1.238005,-3.03E-09,,
,1.240005,-3.07E-09,,
,1.242005,-3.11E-09,,
,1.244005,-3.15E-09,,
,1.246005,-3.19E-09,,
,1.248005,-3.22E-09,,
,1.250005,-3.25E-09,,
,1.252005,-3.28E-09,,
,1.254005,-3.31E-09,,
,1.256005,-3.34E-09,,
,1.258005,-3.37E-09,,
,1.260005,-3.40E-09,,
,1.262005,-3.42E-09,,
,1.264005,-3.44E-09,,
,1.266005,-3.46E-09,,
,1.268005,-3.48E-09,,
,1.270005,-3.50E-09,,
,1.272005,-3.52E-09,,
,1.274005,-3.54E-09,,
,1.276005,-3.55E-09,,
,1.278005,-3.57E-09,,
,1.280005,-3.58E-09,,
,1.282005,-3.59E-09,,
,1.284005,-3.60E-09,,
,1.286005,-3.61E-09,,
,1.288005,-3.62E-09,,
,1.290005,-3.63E-09,,
,1.292005,-3.63E-09,,
,1.294005,-3.63E-09,,
,1.296005,-3.64E-09,,
,1.298005,-3.64E-09,,
,1.300005,-3.64E-09,,
,1.302005,-3.63E-09,,
,1.304005,-3.63E-09,,
,1.306005,-3.63E-09,,
,1.308005,-3.62E-09,,
,1.310005,-3.61E-09,,
,1.312005,-3.61E-09,,
,1.314005,-3.59E-09,,
,1.316005,-3.58E-09,,
,1.318005,-3.57E-09,,
,1.320005,-3.55E-09,,
,1.322005,-3.54E-09,,
,1.324005,-3.52E-09,,
,1.326005,-3.50E-09,,
,1.328005,-3.48E-09,,
,1.330005,-3.46E-09,,
,1.332005,-3.44E-09,,
,1.334005,-3.42E-09,,
,1.336005,-3.39E-09,,
,1.338005,-3.37E-09,,
,1.340005,-3.35E-09,,
,1.342005,-3.32E-09,,
,1.344005,-3.30E-09,,
,1.346005,-3.27E-09,,
,1.348005,-3.24E-09,,
,1.350005,-3.22E-09,,
,1.352005,-3.19E-09,,
,1.354005,-3.16E-09,,
,1.356005,-3.13E-09,,
,1.358005,-3.11E-09,,
,1.360005,-3.08E-09,,
,1.362005,-3.05E-09,,
,1.364005,-3.03E-09,,
,1.366005,-3.00E-09,,
,1.368005,-2.97E-09,,
,1.370005,-2.94E-09,,
,1.372005,-2.92E-09,,
,1.374005,-2.89E-09,,
,1.376005,-2.87E-09,,
,1.378005,-2.84E-09,,
,1.380005,-2.81E-09,,
,1.382005,-2.79E-09,,
,1.384005,-2.76E-09,,
,1.386005,-2.73E-09,,
,1.388005,-2.71E-09,,
,1.390005,-2.68E-09,,
,1.392005,-2.66E-09,,
,1.394005,-2.63E-09,,
,1.396005,-2.61E-09,,
,1.398005,-2.58E-09,,
,1.400005,-2.56E-09,,
,1.402005,-2.53E-09,,
,1.404005,-2.51E-09,,
,1.406005,-2.48E-09,,
,1.408005,-2.46E-09,,
,1.410005,-2.43E-09,,
,1.412005,-2.41E-09,,
,1.414005,-2.38E-09,,
,1.416005,-2.36E-09,,
,1.418005,-2.33E-09,,
,1.420005,-2.31E-09,,
,1.422005,-2.28E-09,,
,1.424005,-2.26E-09,,
,1.426005,-2.23E-09,,
,1.428005,-2.21E-09,,
,1.430005,-2.19E-09,,
,1.432005,-2.16E-09,,
,1.434005,-2.14E-09,,
,1.436005,-2.11E-09,,
,1.438005,-2.09E-09,,
,1.440005,-2.07E-09,,
,1.442005,-2.05E-09,,
,1.444005,-2.02E-09,,
,1.446005,-2.00E-09,,
,1.448005,-1.98E-09,,
,1.450005,-1.95E-09,,
,1.452005,-1.93E-09,,
,1.454005,-1.91E-09,,
,1.456005,-1.89E-09,,
,1.458005,-1.87E-09,,
,1.460005,-1.85E-09,,
,1.462005,-1.83E-09,,
,1.464005,-1.81E-09,,
,1.466005,-1.79E-09,,
,1.468005,-1.77E-09,,
,1.470005,-1.75E-09,,
,1.472005,-1.73E-09,,
,1.474005,-1.71E-09,,
,1.476005,-1.69E-09,,
,1.478005,-1.68E-09,,
,1.480005,-1.66E-09,,
,1.482005,-1.64E-09,,
,1.484005,-1.63E-09,,
,1.486005,-1.61E-09,,
,1.488005,-1.59E-09,,
,1.490005,-1.58E-09,,
,1.492005,-1.56E-09,,
,1.494005,-1.55E-09,,
,1.496005,-1.54E-09,,
,1.498005,-1.52E-09,,
,1.500005,-1.51E-09,,
,1.502005,-1.50E-09,,
,1.504005,-1.49E-09,,
,1.506005,-1.48E-09,,
,1.508005,-1.47E-09,,
,1.510005,-1.46E-09,,
,1.512005,-1.46E-09,,
,1.514005,-1.45E-09,,
,1.516005,-1.44E-09,,
,1.518005,-1.44E-09,,
,1.520005,-1.43E-09,,
,1.522005,-1.43E-09,,
,1.524005,-1.43E-09,,
,1.526005,-1.43E-09,,
,1.528005,-1.43E-09,,
,1.530005,-1.43E-09,,
,1.532005,-1.43E-09,,
,1.534005,-1.44E-09,,
,1.536005,-1.44E-09,,
,1.538005,-1.45E-09,,
,1.540005,-1.46E-09,,
,1.542005,-1.47E-09,,
,1.544005,-1.48E-09,,
,1.546005,-1.49E-09,,
,1.548005,-1.50E-09,,
,1.550005,-1.52E-09,,
,1.552005,-1.53E-09,,
,1.554005,-1.55E-09,,
,1.556005,-1.57E-09,,
,1.558005,-1.58E-09,,
,1.560005,-1.60E-09,,
,1.562005,-1.62E-09,,
,1.564005,-1.64E-09,,
,1.566005,-1.66E-09,,
,1.568005,-1.68E-09,,
,1.570005,-1.71E-09,,
,1.572005,-1.73E-09,,
,1.574005,-1.75E-09,,
,1.576005,-1.77E-09,,
,1.578005,-1.80E-09,,
,1.580005,-1.82E-09,,
,1.582005,-1.84E-09,,
,1.584005,-1.86E-09,,
,1.586005,-1.88E-09,,
,1.588005,-1.91E-09,,
,1.590005,-1.93E-09,,
,1.592005,-1.95E-09,,
,1.594005,-1.97E-09,,
,1.596005,-1.99E-09,,
,1.598005,-2.01E-09,,
,1.600005,-2.03E-09,,
,1.602005,-2.05E-09,,
,1.604005,-2.07E-09,,
,1.606005,-2.09E-09,,
,1.608005,-2.11E-09,,
,1.610005,-2.13E-09,,
,1.612005,-2.15E-09,,
,1.614005,-2.16E-09,,
,1.616005,-2.18E-09,,
,1.618005,-2.20E-09,,
,1.620005,-2.21E-09,,
,1.622005,-2.23E-09,,
,1.624005,-2.24E-09,,
,1.626005,-2.25E-09,,
,1.628005,-2.27E-09,,
,1.630005,-2.28E-09,,
,1.632005,-2.29E-09,,
,1.634005,-2.30E-09,,
,1.636005,-2.31E-09,,
,1.638005,-2.32E-09,,
,1.640005,-2.33E-09,,
,1.642005,-2.34E-09,,
,1.644005,-2.35E-09,,
,1.646005,-2.35E-09,,
,1.648005,-2.36E-09,,
,1.650005,-2.37E-09,,
,1.652005,-2.37E-09,,
,1.654005,-2.37E-09,,
,1.656005,-2.38E-09,,
,1.658005,-2.38E-09,,
,1.660005,-2.38E-09,,
,1.662005,-2.38E-09,,
,1.664005,-2.38E-09,,
,1.666005,-2.38E-09,,
,1.668005,-2.38E-09,,
,1.670005,-2.38E-09,,
,1.672005,-2.38E-09,,
,1.674005,-2.38E-09,,
,1.676005,-2.38E-09,,
,1.678005,-2.37E-09,,
,1.680005,-2.37E-09,,
,1.682005,-2.37E-09,,
,1.684005,-2.36E-09,,
,1.686005,-2.36E-09,,
,1.688005,-2.35E-09,,
,1.690005,-2.35E-09,,
,1.692005,-2.34E-09,,
,1.694005,-2.34E-09,,
,1.696005,-2.33E-09,,
,1.698005,-2.33E-09,,
,1.700005,-2.32E-09,,
,1.702005,-2.32E-09,,
,1.704005,-2.31E-09,,
,1.706005,-2.31E-09,,
,1.708005,-2.30E-09,,
,1.710005,-2.29E-09,,
,1.712005,-2.29E-09,,
,1.714005,-2.28E-09,,
,1.716005,-2.28E-09,,
,1.718005,-2.27E-09,,
,1.720005,-2.26E-09,,
,1.722005,-2.26E-09,,
,1.724005,-2.25E-09,,
,1.726005,-2.24E-09,,
,1.728005,-2.24E-09,,
,1.730005,-2.23E-09,,
,1.732005,-2.22E-09,,
,1.734005,-2.21E-09,,
,1.736005,-2.21E-09,,
,1.738005,-2.20E-09,,
,1.740005,-2.20E-09,,
,1.742005,-2.19E-09,,
,1.744005,-2.18E-09,,
,1.746005,-2.18E-09,,
,1.748005,-2.17E-09,,
,1.750005,-2.17E-09,,
,1.752005,-2.16E-09,,
,1.754005,-2.15E-09,,
,1.756005,-2.15E-09,,
,1.758005,-2.15E-09,,
,1.760005,-2.14E-09,,
,1.762005,-2.14E-09,,
,1.764005,-2.14E-09,,
,1.766005,-2.13E-09,,
,1.768005,-2.13E-09,,
,1.770005,-2.13E-09,,
,1.772005,-2.13E-09,,
,1.774005,-2.13E-09,,
,1.776005,-2.13E-09,,
,1.778005,-2.13E-09,,
,1.780005,-2.13E-09,,
,1.782005,-2.13E-09,,
,1.784005,-2.14E-09,,
,1.786005,-2.14E-09,,
,1.788005,-2.14E-09,,
,1.790005,-2.14E-09,,
,1.792005,-2.14E-09,,
,1.794005,-2.15E-09,,
,1.796005,-2.15E-09,,
,1.798005,-2.15E-09,,
,1.800005,-2.15E-09,,
,1.802005,-2.16E-09,,
,1.804005,-2.16E-09,,
,1.806005,-2.17E-09,,
,1.808005,-2.17E-09,,
,1.810005,-2.18E-09,,
,1.812005,-2.18E-09,,
,1.814005,-2.19E-09,,
,1.816005,-2.19E-09,,
,1.818005,-2.20E-09,,
,1.820005,-2.20E-09,,
,1.822005,-2.21E-09,,
,1.824005,-2.21E-09,,
,1.826005,-2.22E-09,,
,1.828005,-2.22E-09,,
,1.830005,-2.23E-09,,
,1.832005,-2.23E-09,,
,1.834005,-2.24E-09,,
,1.836005,-2.24E-09,,
,1.838005,-2.24E-09,,
,1.840005,-2.25E-09,,
,1.842005,-2.25E-09,,
,1.844005,-2.26E-09,,
,1.846005,-2.26E-09,,
,1.848005,-2.26E-09,,
,1.850005,-2.26E-09,,
,1.852005,-2.26E-09,,
,1.854005,-2.26E-09,,
,1.856005,-2.26E-09,,
,1.858005,-2.27E-09,,
,1.860005,-2.27E-09,,
,1.862005,-2.27E-09,,
,1.864005,-2.26E-09,,
,1.866005,-2.26E-09,,
,1.868005,-2.26E-09,,
,1.870005,-2.26E-09,,
,1.872005,-2.26E-09,,
,1.874005,-2.26E-09,,
,1.876005,-2.25E-09,,
,1.878005,-2.25E-09,,
,1.880005,-2.25E-09,,
,1.882005,-2.24E-09,,
,1.884005,-2.24E-09,,
,1.886005,-2.23E-09,,
,1.888005,-2.22E-09,,
,1.890005,-2.22E-09,,
,1.892005,-2.21E-09,,
,1.894005,-2.20E-09,,
,1.896005,-2.20E-09,,
,1.898005,-2.19E-09,,
,1.900005,-2.18E-09,,
,1.902005,-2.17E-09,,
,1.904005,-2.16E-09,,
,1.906005,-2.15E-09,,
,1.908005,-2.14E-09,,
,1.910005,-2.13E-09,,
,1.912005,-2.12E-09,,
,1.914005,-2.10E-09,,
,1.916005,-2.09E-09,,
,1.918005,-2.08E-09,,
,1.920005,-2.07E-09,,
,1.922005,-2.06E-09,,
,1.924005,-2.04E-09,,
,1.926005,-2.03E-09,,
,1.928005,-2.02E-09,,
,1.930005,-2.01E-09,,
,1.932005,-2.00E-09,,
,1.934005,-1.99E-09,,
,1.936005,-1.98E-09,,
,1.938005,-1.96E-09,,
,1.940005,-1.95E-09,,
,1.942005,-1.94E-09,,
,1.944005,-1.93E-09,,
,1.946005,-1.92E-09,,
,1.948005,-1.91E-09,,
,1.950005,-1.90E-09,,
,1.952005,-1.89E-09,,
,1.954005,-1.88E-09,,
,1.956005,-1.87E-09,,
,1.958005,-1.86E-09,,
,1.960005,-1.85E-09,,
,1.962005,-1.84E-09,,
,1.964005,-1.83E-09,,
,1.966005,-1.82E-09,,
,1.968005,-1.81E-09,,
,1.970005,-1.80E-09,,
,1.972005,-1.79E-09,,
,1.974005,-1.79E-09,,
,1.976005,-1.78E-09,,
,1.978005,-1.77E-09,,
,1.980005,-1.76E-09,,
,1.982005,-1.75E-09,,
,1.984005,-1.75E-09,,
,1.986005,-1.74E-09,,
,1.988005,-1.73E-09,,
,1.990005,-1.72E-09,,
,1.992005,-1.72E-09,,
,1.994005,-1.71E-09,,
,1.996005,-1.70E-09,,
,1.998005,-1.70E-09,,
,2.000005,-1.69E-09,,
,2.002005,-1.69E-09,,
,2.004005,-1.68E-09,,
,2.006005,-1.68E-09,,
,2.008005,-1.68E-09,,
,2.010005,-1.67E-09,,
,2.012005,-1.67E-09,,
,2.014005,-1.66E-09,,
,2.016005,-1.66E-09,,
,2.018005,-1.66E-09,,
,2.020005,-1.65E-09,,
,2.022005,-1.65E-09,,
,2.024005,-1.65E-09,,
,2.026005,-1.65E-09,,
,2.028005,-1.64E-09,,
,2.030005,-1.64E-09,,
,2.032005,-1.64E-09,,
,2.034005,-1.64E-09,,
,2.036005,-1.64E-09,,
,2.038005,-1.64E-09,,
,2.040005,-1.64E-09,,
,2.042005,-1.63E-09,,
,2.044005,-1.63E-09,,
,2.046005,-1.63E-09,,
,2.048005,-1.63E-09,,
,2.050005,-1.63E-09,,
,2.052005,-1.63E-09,,
,2.054005,-1.63E-09,,
,2.056005,-1.63E-09,,
,2.058005,-1.63E-09,,
,2.060005,-1.63E-09,,
,2.062005,-1.63E-09,,
,2.064005,-1.63E-09,,
,2.066005,-1.63E-09,,
,2.068005,-1.63E-09,,
,2.070005,-1.63E-09,,
,2.072005,-1.63E-09,,
,2.074005,-1.63E-09,,
,2.076005,-1.63E-09,,
,2.078005,-1.63E-09,,
,2.080005,-1.63E-09,,
,2.082005,-1.63E-09,,
,2.084005,-1.63E-09,,
,2.086005,-1.63E-09,,
,2.088005,-1.64E-09,,
,2.090005,-1.64E-09,,
,2.092005,-1.64E-09,,
,2.094005,-1.64E-09,,
,2.096005,-1.64E-09,,
,2.098005,-1.64E-09,,
,2.100005,-1.64E-09,,
,2.102005,-1.64E-09,,
,2.104005,-1.64E-09,,
,2.106005,-1.64E-09,,
,2.108005,-1.64E-09,,
,2.110005,-1.64E-09,,
,2.112005,-1.64E-09,,
,2.114005,-1.64E-09,,
,2.116005,-1.64E-09,,
,2.118005,-1.64E-09,,
,2.120005,-1.64E-09,,
,2.122005,-1.64E-09,,
,2.124005,-1.64E-09,,
,2.126005,-1.64E-09,,
,2.128005,-1.63E-09,,
,2.130005,-1.63E-09,,
,2.132005,-1.63E-09,,
,2.134005,-1.63E-09,,
,2.136005,-1.62E-09,,
,2.138005,-1.62E-09,,
,2.140005,-1.62E-09,,
,2.142005,-1.61E-09,,
,2.144005,-1.61E-09,,
,2.146005,-1.61E-09,,
,2.148005,-1.60E-09,,
,2.150005,-1.60E-09,,
,2.152005,-1.59E-09,,
,2.154005,-1.58E-09,,
,2.156005,-1.58E-09,,
,2.158005,-1.57E-09,,
,2.160005,-1.56E-09,,
,2.162005,-1.56E-09,,
,2.164005,-1.55E-09,,
,2.166005,-1.54E-09,,
,2.168005,-1.54E-09,,
,2.170005,-1.53E-09,,
,2.172005,-1.52E-09,,
,2.174005,-1.51E-09,,
,2.176005,-1.51E-09,,
,2.178005,-1.50E-09,,
,2.180005,-1.49E-09,,
,2.182005,-1.48E-09,,
,2.184005,-1.47E-09,,
,2.186005,-1.46E-09,,
,2.188005,-1.44E-09,,
,2.190005,-1.43E-09,,
,2.192005,-1.42E-09,,
,2.194005,-1.41E-09,,
,2.196005,-1.40E-09,,
,2.198005,-1.38E-09,,
,2.200005,-1.37E-09,,
,2.202005,-1.36E-09,,
,2.204005,-1.34E-09,,
,2.206005,-1.33E-09,,
,2.208005,-1.31E-09,,
,2.210005,-1.29E-09,,
,2.212005,-1.28E-09,,
,2.214005,-1.26E-09,,
,2.216005,-1.24E-09,,
,2.218005,-1.23E-09,,
,2.220005,-1.21E-09,,
,2.222005,-1.19E-09,,
,2.224005,-1.18E-09,,
,2.226005,-1.16E-09,,
,2.228005,-1.14E-09,,
,2.230005,-1.13E-09,,
,2.232005,-1.11E-09,,
,2.234005,-1.09E-09,,
,2.236005,-1.08E-09,,
,2.238005,-1.06E-09,,
,2.240005,-1.05E-09,,
,2.242005,-1.03E-09,,
,2.244005,-1.02E-09,,
,2.246005,-1.00E-09,,
,2.248005,-9.89E-10,,
,2.250005,-9.76E-10,,
,2.252005,-9.63E-10,,
,2.254005,-9.51E-10,,
,2.256005,-9.40E-10,,
,2.258005,-9.30E-10,,
,2.260005,-9.20E-10,,
,2.262005,-9.11E-10,,
,2.264005,-9.01E-10,,
,2.266005,-8.93E-10,,
,2.268005,-8.84E-10,,
,2.270005,-8.77E-10,,
,2.272005,-8.69E-10,,
,2.274005,-8.63E-10,,
,2.276005,-8.56E-10,,
,2.278005,-8.49E-10,,
,2.280005,-8.43E-10,,
,2.282005,-8.37E-10,,
,2.284005,-8.30E-10,,
,2.286005,-8.24E-10,,
,2.288005,-8.18E-10,,
,2.290005,-8.12E-10,,
,2.292005,-8.05E-10,,
,2.294005,-7.98E-10,,
,2.296005,-7.90E-10,,
,2.298005,-7.82E-10,,
,2.300005,-7.73E-10,,
,2.302005,-7.64E-10,,
,2.304005,-7.55E-10,,
,2.306005,-7.46E-10,,
,2.308005,-7.37E-10,,
,2.310005,-7.28E-10,,
,2.312005,-7.19E-10,,
,2.314005,-7.09E-10,,
,2.316005,-6.99E-10,,
,2.318005,-6.88E-10,,
,2.320005,-6.78E-10,,
,2.322005,-6.67E-10,,
,2.324005,-6.57E-10,,
,2.326005,-6.46E-10,,
,2.328005,-6.35E-10,,
,2.330005,-6.24E-10,,
,2.332005,-6.12E-10,,
,2.334005,-6.02E-10,,
,2.336005,-5.91E-10,,
,2.338005,-5.81E-10,,
,2.340005,-5.71E-10,,
,2.342005,-5.61E-10,,
,2.344005,-5.51E-10,,
,2.346005,-5.40E-10,,
,2.348005,-5.30E-10,,
,2.350005,-5.20E-10,,
,2.352005,-5.10E-10,,
,2.354005,-5.00E-10,,
,2.356005,-4.90E-10,,
,2.358005,-4.80E-10,,
,2.360005,-4.71E-10,,
,2.362005,-4.61E-10,,
,2.364005,-4.51E-10,,
,2.366005,-4.42E-10,,
,2.368005,-4.32E-10,,
,2.370005,-4.23E-10,,
,2.372005,-4.15E-10,,
,2.374005,-4.07E-10,,
,2.376005,-3.99E-10,,
,2.378005,-3.91E-10,,
,2.380005,-3.82E-10,,
,2.382005,-3.74E-10,,
,2.384005,-3.65E-10,,
,2.386005,-3.57E-10,,
,2.388005,-3.49E-10,,
,2.390005,-3.42E-10,,
,2.392005,-3.34E-10,,
,2.394005,-3.27E-10,,
,2.396005,-3.20E-10,,
,2.398005,-3.12E-10,,
,2.400005,-3.05E-10,,
,2.402005,-2.99E-10,,
,2.404005,-2.93E-10,,
,2.406005,-2.87E-10,,
,2.408005,-2.82E-10,,
,2.410005,-2.76E-10,,
,2.412005,-2.69E-10,,
,2.414005,-2.63E-10,,
,2.416005,-2.56E-10,,
,2.418005,-2.50E-10,,
,2.420005,-2.44E-10,,
,2.422005,-2.37E-10,,
,2.424005,-2.31E-10,,
,2.426005,-2.24E-10,,
,2.428005,-2.18E-10,,
,2.430005,-2.11E-10,,
,2.432005,-2.05E-10,,
,2.434005,-1.98E-10,,
,2.436005,-1.92E-10,,
,2.438005,-1.86E-10,,
,2.440005,-1.80E-10,,
,2.442005,-1.74E-10,,
,2.444005,-1.68E-10,,
,2.446005,-1.61E-10,,
,2.448005,-1.54E-10,,
,2.450005,-1.47E-10,,
,2.452005,-1.40E-10,,
,2.454005,-1.33E-10,,
,2.456005,-1.26E-10,,
,2.458005,-1.20E-10,,
,2.460005,-1.13E-10,,
,2.462005,-1.06E-10,,
,2.464005,-9.87E-11,,
,2.466005,-9.18E-11,,
,2.468005,-8.56E-11,,
,2.470005,-7.96E-11,,
,2.472005,-7.38E-11,,
,2.474005,-6.81E-11,,
,2.476005,-6.20E-11,,
,2.478005,-5.61E-11,,
,2.480005,-4.98E-11,,
,2.482005,-4.36E-11,,
,2.484005,-3.68E-11,,
,2.486005,-3.01E-11,,
,2.488005,-2.38E-11,,
,2.490005,-1.77E-11,,
,2.492005,-1.20E-11,,
,2.494005,-6.36E-12,,
,2.496005,-6.69E-13,,
,2.498005,4.91E-12,,
,2.500005,1.03E-11,,
,2.502005,1.53E-11,,
,2.504005,2.01E-11,,
,2.506005,2.45E-11,,
,2.508005,2.87E-11,,
,2.510005,3.31E-11,,
,2.512005,3.73E-11,,
,2.514005,4.15E-11,,
,2.516005,4.58E-11,,
,2.518005,5.01E-11,,
,2.520005,5.38E-11,,
,2.522005,5.68E-11,,
,2.524005,5.92E-11,,
,2.526005,6.19E-11,,
,2.528005,6.46E-11,,
,2.530005,6.72E-11,,
,2.532005,6.94E-11,,
,2.534005,7.15E-11,,
,2.536005,7.31E-11,,
,2.538005,7.45E-11,,
,2.540005,7.52E-11,,
,2.542005,7.62E-11,,
,2.544005,7.72E-11,,
,2.546005,7.85E-11,,
,2.548005,7.98E-11,,
,2.550005,8.14E-11,,
,2.552005,8.32E-11,,
,2.554005,8.46E-11,,
,2.556005,8.56E-11,,
,2.558005,8.66E-11,,
,2.560005,8.80E-11,,
,2.562005,8.97E-11,,
,2.564005,9.13E-11,,
,2.566005,9.29E-11,,
,2.568005,9.46E-11,,
,2.570005,9.61E-11,,
,2.572005,9.76E-11,,
,2.574005,9.91E-11,,
,2.576005,1.01E-10,,
,2.578005,1.03E-10,,
,2.580005,1.05E-10,,
,2.582005,1.08E-10,,
,2.584005,1.11E-10,,
,2.586005,1.15E-10,,
,2.588005,1.18E-10,,
,2.590005,1.22E-10,,
,2.592005,1.25E-10,,
,2.594005,1.30E-10,,
,2.596005,1.34E-10,,
,2.598005,1.38E-10,,
,2.600005,1.43E-10,,
,2.602005,1.48E-10,,
,2.604005,1.52E-10,,
,2.606005,1.57E-10,,
,2.608005,1.62E-10,,
,2.610005,1.67E-10,,
,2.612005,1.72E-10,,
,2.614005,1.78E-10,,
,2.616005,1.85E-10,,
,2.618005,1.91E-10,,
,2.620005,1.98E-10,,
,2.622005,2.04E-10,,
,2.624005,2.11E-10,,
,2.626005,2.18E-10,,
,2.628005,2.25E-10,,
,2.630005,2.32E-10,,
,2.632005,2.40E-10,,
,2.634005,2.48E-10,,
,2.636005,2.55E-10,,
,2.638005,2.63E-10,,
,2.640005,2.71E-10,,
,2.642005,2.80E-10,,
,2.644005,2.88E-10,,
,2.646005,2.97E-10,,
,2.648005,3.06E-10,,
,2.650005,3.16E-10,,
,2.652005,3.26E-10,,
,2.654005,3.35E-10,,
,2.656005,3.44E-10,,
,2.658005,3.53E-10,,
,2.660005,3.61E-10,,
,2.662005,3.70E-10,,
,2.664005,3.78E-10,,
,2.666005,3.86E-10,,
,2.668005,3.95E-10,,
,2.670005,4.02E-10,,
,2.672005,4.09E-10,,
,2.674005,4.15E-10,,
,2.676005,4.22E-10,,
,2.678005,4.28E-10,,
,2.680005,4.34E-10,,
,2.682005,4.40E-10,,
,2.684005,4.45E-10,,
,2.686005,4.49E-10,,
,2.688005,4.53E-10,,
,2.690005,4.57E-10,,
,2.692005,4.60E-10,,
,2.694005,4.63E-10,,
,2.696005,4.65E-10,,
,2.698005,4.66E-10,,
,2.700005,4.68E-10,,
,2.702005,4.69E-10,,
,2.704005,4.70E-10,,
,2.706005,4.70E-10,,
,2.708005,4.70E-10,,
,2.710005,4.69E-10,,
,2.712005,4.68E-10,,
,2.714005,4.68E-10,,
,2.716005,4.68E-10,,
,2.718005,4.67E-10,,
,2.720005,4.67E-10,,
,2.722005,4.66E-10,,
,2.724005,4.64E-10,,
,2.726005,4.63E-10,,
,2.728005,4.61E-10,,
,2.730005,4.60E-10,,
,2.732005,4.59E-10,,
,2.734005,4.57E-10,,
,2.736005,4.56E-10,,
,2.738005,4.54E-10,,
,2.740005,4.51E-10,,
,2.742005,4.49E-10,,
,2.744005,4.47E-10,,
,2.746005,4.44E-10,,
,2.748005,4.41E-10,,
,2.750005,4.38E-10,,
,2.752005,4.34E-10,,
,2.754005,4.30E-10,,
,2.756005,4.26E-10,,
,2.758005,4.22E-10,,
,2.760005,4.17E-10,,
,2.762005,4.12E-10,,
,2.764005,4.08E-10,,
,2.766005,4.02E-10,,
,2.768005,3.97E-10,,
,2.770005,3.91E-10,,
,2.772005,3.85E-10,,
,2.774005,3.78E-10,,
,2.776005,3.70E-10,,
,2.778005,3.63E-10,,
,2.780005,3.55E-10,,
,2.782005,3.47E-10,,
,2.784005,3.39E-10,,
,2.786005,3.30E-10,,
,2.788005,3.20E-10,,
,2.790005,3.10E-10,,
,2.792005,3.00E-10,,
,2.794005,2.89E-10,,
,2.796005,2.79E-10,,
,2.798005,2.68E-10,,
,2.800005,2.56E-10,,
,2.802005,2.45E-10,,
,2.804005,2.32E-10,,
,2.806005,2.19E-10,,
,2.808005,2.05E-10,,
,2.810005,1.92E-10,,
,2.812005,1.78E-10,,
,2.814005,1.64E-10,,
,2.816005,1.50E-10,,
,2.818005,1.35E-10,,
,2.820005,1.21E-10,,
,2.822005,1.06E-10,,
,2.824005,9.10E-11,,
,2.826005,7.62E-11,,
,2.828005,6.16E-11,,
,2.830005,4.72E-11,,
,2.832005,3.30E-11,,
,2.834005,1.87E-11,,
,2.836005,4.59E-12,,
,2.838005,-9.37E-12,,
,2.840005,-2.29E-11,,
,2.842005,-3.62E-11,,
,2.844005,-4.88E-11,,
,2.846005,-6.10E-11,,
,2.848005,-7.25E-11,,
,2.850005,-8.38E-11,,
,2.852005,-9.42E-11,,
,2.854005,-1.04E-10,,
,2.856005,-1.14E-10,,
,2.858005,-1.23E-10,,
,2.860005,-1.30E-10,,
,2.862005,-1.38E-10,,
,2.864005,-1.44E-10,,
,2.866005,-1.50E-10,,
,2.868005,-1.56E-10,,
,2.870005,-1.61E-10,,
,2.872005,-1.66E-10,,
,2.874005,-1.71E-10,,
,2.876005,-1.75E-10,,
,2.878005,-1.79E-10,,
,2.880005,-1.83E-10,,
,2.882005,-1.86E-10,,
,2.884005,-1.88E-10,,
,2.886005,-1.91E-10,,
,2.888005,-1.94E-10,,
,2.890005,-1.96E-10,,
,2.892005,-1.99E-10,,
,2.894005,-2.01E-10,,
,2.896005,-2.04E-10,,
,2.898005,-2.08E-10,,
,2.900005,-2.11E-10,,
,2.902005,-2.15E-10,,
,2.904005,-2.19E-10,,
,2.906005,-2.24E-10,,
,2.908005,-2.29E-10,,
,2.910005,-2.33E-10,,
,2.912005,-2.38E-10,,
,2.914005,-2.43E-10,,
,2.916005,-2.47E-10,,
,2.918005,-2.53E-10,,
,2.920005,-2.58E-10,,
,2.922005,-2.63E-10,,
,2.924005,-2.69E-10,,
,2.926005,-2.75E-10,,
,2.928005,-2.81E-10,,
,2.930005,-2.87E-10,,
,2.932005,-2.93E-10,,
,2.934005,-2.99E-10,,
,2.936005,-3.05E-10,,
,2.938005,-3.11E-10,,
,2.940005,-3.17E-10,,
,2.942005,-3.22E-10,,
,2.944005,-3.27E-10,,
,2.946005,-3.32E-10,,
,2.948005,-3.37E-10,,
,2.950005,-3.42E-10,,
,2.952005,-3.45E-10,,
,2.954005,-3.49E-10,,
,2.956005,-3.52E-10,,
,2.958005,-3.55E-10,,
,2.960005,-3.58E-10,,
,2.962005,-3.60E-10,,
,2.964005,-3.62E-10,,
,2.966005,-3.64E-10,,
,2.968005,-3.65E-10,,
,2.970005,-3.66E-10,,
,2.972005,-3.67E-10,,
,2.974005,-3.67E-10,,
,2.976005,-3.67E-10,,
,2.978005,-3.66E-10,,
,2.980005,-3.65E-10,,
,2.982005,-3.64E-10,,
,2.984005,-3.62E-10,,
,2.986005,-3.60E-10,,
,2.988005,-3.58E-10,,
,2.990005,-3.55E-10,,
,2.992005,-3.52E-10,,
,2.994005,-3.49E-10,,
,2.996005,-3.45E-10,,
,2.998005,-3.42E-10,,
,3.000005,-3.37E-10,,
,3.002005,-3.33E-10,,
,3.004005,-3.29E-10,,
,3.006005,-3.25E-10,,
,3.008005,-3.20E-10,,
,3.010005,-3.16E-10,,
,3.012005,-3.12E-10,,
,3.014005,-3.07E-10,,
,3.016005,-3.02E-10,,
,3.018005,-2.97E-10,,
,3.020005,-2.91E-10,,
,3.022005,-2.86E-10,,
,3.024005,-2.80E-10,,
,3.026005,-2.74E-10,,
,3.028005,-2.69E-10,,
,3.030005,-2.63E-10,,
,3.032005,-2.58E-10,,
,3.034005,-2.52E-10,,
,3.036005,-2.47E-10,,
,3.038005,-2.42E-10,,
,3.040005,-2.38E-10,,
,3.042005,-2.33E-10,,
,3.044005,-2.28E-10,,
,3.046005,-2.23E-10,,
,3.048005,-2.18E-10,,
,3.050005,-2.13E-10,,
,3.052005,-2.08E-10,,
,3.054005,-2.03E-10,,
,3.056005,-1.98E-10,,
,3.058005,-1.93E-10,,
,3.060005,-1.88E-10,,
,3.062005,-1.83E-10,,
,3.064005,-1.77E-10,,
,3.066005,-1.72E-10,,
,3.068005,-1.66E-10,,
,3.070005,-1.61E-10,,
,3.072005,-1.55E-10,,
,3.074005,-1.49E-10,,
,3.076005,-1.43E-10,,
,3.078005,-1.35E-10,,
,3.080005,-1.28E-10,,
,3.082005,-1.20E-10,,
,3.084005,-1.12E-10,,
,3.086005,-1.03E-10,,
,3.088005,-9.43E-11,,
,3.090005,-8.54E-11,,
,3.092005,-7.61E-11,,
,3.094005,-6.66E-11,,
,3.096005,-5.65E-11,,
,3.098005,-4.60E-11,,
,3.100005,-3.55E-11,,
,3.102005,-2.45E-11,,
,3.104005,-1.36E-11,,
,3.106005,-1.96E-12,,
,3.108005,9.74E-12,,
,3.110005,2.20E-11,,
,3.112005,3.48E-11,,
,3.114005,4.80E-11,,
,3.116005,6.19E-11,,
,3.118005,7.65E-11,,
,3.120005,9.18E-11,,
,3.122005,1.08E-10,,
,3.124005,1.24E-10,,
,3.126005,1.41E-10,,
,3.128005,1.59E-10,,
,3.130005,1.78E-10,,
,3.132005,1.97E-10,,
,3.134005,2.18E-10,,
,3.136005,2.39E-10,,
,3.138005,2.60E-10,,
,3.140005,2.82E-10,,
,3.142005,3.04E-10,,
,3.144005,3.28E-10,,
,3.146005,3.52E-10,,
,3.148005,3.77E-10,,
,3.150005,4.02E-10,,
,3.152005,4.29E-10,,
,3.154005,4.55E-10,,
,3.156005,4.82E-10,,
,3.158005,5.10E-10,,
,3.160005,5.38E-10,,
,3.162005,5.66E-10,,
,3.164005,5.95E-10,,
,3.166005,6.23E-10,,
,3.168005,6.53E-10,,
,3.170005,6.82E-10,,
,3.172005,7.12E-10,,
,3.174005,7.42E-10,,
,3.176005,7.72E-10,,
,3.178005,8.04E-10,,
,3.180005,8.35E-10,,
,3.182005,8.67E-10,,
,3.184005,9.00E-10,,
,3.186005,9.33E-10,,
,3.188005,9.66E-10,,
,3.190005,1.00E-09,,
,3.192005,1.03E-09,,
,3.194005,1.07E-09,,
,3.196005,1.10E-09,,
,3.198005,1.14E-09,,
,3.200005,1.17E-09,,
,3.202005,1.21E-09,,
,3.204005,1.25E-09,,
,3.206005,1.28E-09,,
,3.208005,1.32E-09,,
,3.210005,1.35E-09,,
,3.212005,1.39E-09,,
,3.214005,1.43E-09,,
,3.216005,1.46E-09,,
,3.218005,1.50E-09,,
,3.220005,1.54E-09,,
,3.222005,1.57E-09,,
,3.224005,1.61E-09,,
,3.226005,1.65E-09,,
,3.228005,1.68E-09,,
,3.230005,1.72E-09,,
,3.232005,1.75E-09,,
,3.234005,1.79E-09,,
,3.236005,1.82E-09,,
,3.238005,1.86E-09,,
,3.240005,1.89E-09,,
,3.242005,1.92E-09,,
,3.244005,1.96E-09,,
,3.246005,1.99E-09,,
,3.248005,2.02E-09,,
,3.250005,2.05E-09,,
,3.252005,2.08E-09,,
,3.254005,2.11E-09,,
,3.256005,2.14E-09,,
,3.258005,2.17E-09,,
,3.260005,2.20E-09,,
,3.262005,2.23E-09,,
,3.264005,2.26E-09,,
,3.266005,2.29E-09,,
,3.268005,2.32E-09,,
,3.270005,2.35E-09,,
,3.272005,2.38E-09,,
,3.274005,2.40E-09,,
,3.276005,2.43E-09,,
,3.278005,2.45E-09,,
,3.280005,2.48E-09,,
,3.282005,2.51E-09,,
,3.284005,2.53E-09,,
,3.286005,2.56E-09,,
,3.288005,2.58E-09,,
,3.290005,2.61E-09,,
,3.292005,2.63E-09,,
,3.294005,2.65E-09,,
,3.296005,2.68E-09,,
,3.298005,2.70E-09,,
,3.300005,2.72E-09,,
,3.302005,2.74E-09,,
,3.304005,2.76E-09,,
,3.306005,2.78E-09,,
,3.308005,2.80E-09,,
,3.310005,2.82E-09,,
,3.312005,2.84E-09,,
,3.314005,2.86E-09,,
,3.316005,2.87E-09,,
,3.318005,2.89E-09,,
,3.320005,2.91E-09,,
,3.322005,2.92E-09,,
,3.324005,2.93E-09,,
,3.326005,2.95E-09,,
,3.328005,2.96E-09,,
,3.330005,2.97E-09,,
,3.332005,2.98E-09,,
,3.334005,2.99E-09,,
,3.336005,3.00E-09,,
,3.338005,3.01E-09,,
,3.340005,3.02E-09,,
,3.342005,3.03E-09,,
,3.344005,3.03E-09,,
,3.346005,3.04E-09,,
,3.348005,3.05E-09,,
,3.350005,3.05E-09,,
,3.352005,3.06E-09,,
,3.354005,3.06E-09,,
,3.356005,3.07E-09,,
,3.358005,3.07E-09,,
,3.360005,3.07E-09,,
,3.362005,3.08E-09,,
,3.364005,3.08E-09,,
,3.366005,3.08E-09,,
,3.368005,3.08E-09,,
,3.370005,3.09E-09,,
,3.372005,3.09E-09,,
,3.374005,3.09E-09,,
,3.376005,3.09E-09,,
,3.378005,3.09E-09,,
,3.380005,3.09E-09,,
,3.382005,3.09E-09,,
,3.384005,3.09E-09,,
,3.386005,3.09E-09,,
,3.388005,3.09E-09,,
,3.390005,3.09E-09,,
,3.392005,3.08E-09,,
,3.394005,3.08E-09,,
,3.396005,3.08E-09,,
,3.398005,3.08E-09,,
,3.400005,3.07E-09,,
,3.402005,3.07E-09,,
,3.404005,3.06E-09,,
,3.406005,3.06E-09,,
,3.408005,3.05E-09,,
,3.410005,3.05E-09,,
,3.412005,3.04E-09,,
,3.414005,3.03E-09,,
,3.416005,3.03E-09,,
,3.418005,3.02E-09,,
,3.420005,3.01E-09,,
,3.422005,3.00E-09,,
,3.424005,3.00E-09,,
,3.426005,2.99E-09,,
,3.428005,2.98E-09,,
,3.430005,2.97E-09,,
,3.432005,2.96E-09,,
,3.434005,2.96E-09,,
,3.436005,2.95E-09,,
,3.438005,2.94E-09,,
,3.440005,2.93E-09,,
,3.442005,2.92E-09,,
,3.444005,2.91E-09,,
,3.446005,2.90E-09,,
,3.448005,2.90E-09,,
,3.450005,2.89E-09,,
,3.452005,2.88E-09,,
,3.454005,2.87E-09,,
,3.456005,2.86E-09,,
,3.458005,2.85E-09,,
,3.460005,2.85E-09,,
,3.462005,2.84E-09,,
,3.464005,2.83E-09,,
,3.466005,2.82E-09,,
,3.468005,2.82E-09,,
,3.470005,2.81E-09,,
,3.472005,2.80E-09,,
,3.474005,2.79E-09,,
,3.476005,2.79E-09,,
,3.478005,2.78E-09,,
,3.480005,2.77E-09,,
,3.482005,2.76E-09,,
,3.484005,2.76E-09,,
,3.486005,2.75E-09,,
,3.488005,2.74E-09,,
,3.490005,2.73E-09,,
,3.492005,2.73E-09,,
,3.494005,2.72E-09,,
,3.496005,2.71E-09,,
,3.498005,2.70E-09,,
,3.500005,2.69E-09,,
,3.502005,2.69E-09,,
,3.504005,2.68E-09,,
,3.506005,2.67E-09,,
,3.508005,2.66E-09,,
,3.510005,2.65E-09,,
,3.512005,2.64E-09,,
,3.514005,2.63E-09,,
,3.516005,2.61E-09,,
,3.518005,2.60E-09,,
,3.520005,2.59E-09,,
,3.522005,2.58E-09,,
,3.524005,2.57E-09,,
,3.526005,2.56E-09,,
,3.528005,2.54E-09,,
,3.530005,2.53E-09,,
,3.532005,2.52E-09,,
,3.534005,2.51E-09,,
,3.536005,2.49E-09,,
,3.538005,2.48E-09,,
,3.540005,2.47E-09,,
,3.542005,2.45E-09,,
,3.544005,2.44E-09,,
,3.546005,2.42E-09,,
,3.548005,2.41E-09,,
,3.550005,2.40E-09,,
,3.552005,2.38E-09,,
,3.554005,2.37E-09,,
,3.556005,2.36E-09,,
,3.558005,2.34E-09,,
,3.560005,2.33E-09,,
,3.562005,2.32E-09,,
,3.564005,2.31E-09,,
,3.566005,2.29E-09,,
,3.568005,2.28E-09,,
,3.570005,2.27E-09,,
,3.572005,2.25E-09,,
,3.574005,2.24E-09,,
,3.576005,2.23E-09,,
,3.578005,2.21E-09,,
,3.580005,2.20E-09,,
,3.582005,2.19E-09,,
,3.584005,2.18E-09,,
,3.586005,2.16E-09,,
,3.588005,2.15E-09,,
,3.590005,2.14E-09,,
,3.592005,2.12E-09,,
,3.594005,2.11E-09,,
,3.596005,2.10E-09,,
,3.598005,2.09E-09,,
,3.600005,2.07E-09,,
,3.602005,2.06E-09,,
,3.604005,2.05E-09,,
,3.606005,2.04E-09,,
,3.608005,2.02E-09,,
,3.610005,2.01E-09,,
,3.612005,2.00E-09,,
,3.614005,1.99E-09,,
,3.616005,1.98E-09,,
,3.618005,1.97E-09,,
,3.620005,1.96E-09,,
,3.622005,1.94E-09,,
,3.624005,1.93E-09,,
,3.626005,1.92E-09,,
,3.628005,1.91E-09,,
,3.630005,1.90E-09,,
,3.632005,1.89E-09,,
,3.634005,1.87E-09,,
,3.636005,1.86E-09,,
,3.638005,1.85E-09,,
,3.640005,1.84E-09,,
,3.642005,1.83E-09,,
,3.644005,1.81E-09,,
,3.646005,1.80E-09,,
,3.648005,1.79E-09,,
,3.650005,1.78E-09,,
,3.652005,1.77E-09,,
,3.654005,1.75E-09,,
,3.656005,1.74E-09,,
,3.658005,1.73E-09,,
,3.660005,1.71E-09,,
,3.662005,1.70E-09,,
,3.664005,1.68E-09,,
,3.666005,1.67E-09,,
,3.668005,1.66E-09,,
,3.670005,1.64E-09,,
,3.672005,1.63E-09,,
,3.674005,1.61E-09,,
,3.676005,1.60E-09,,
,3.678005,1.58E-09,,
,3.680005,1.57E-09,,
,3.682005,1.55E-09,,
,3.684005,1.54E-09,,
,3.686005,1.52E-09,,
,3.688005,1.51E-09,,
,3.690005,1.49E-09,,
,3.692005,1.47E-09,,
,3.694005,1.46E-09,,
,3.696005,1.44E-09,,
,3.698005,1.43E-09,,
,3.700005,1.41E-09,,
,3.702005,1.39E-09,,
,3.704005,1.38E-09,,
,3.706005,1.36E-09,,
,3.708005,1.34E-09,,
,3.710005,1.32E-09,,
,3.712005,1.31E-09,,
,3.714005,1.29E-09,,
,3.716005,1.27E-09,,
,3.718005,1.26E-09,,
,3.720005,1.24E-09,,
,3.722005,1.23E-09,,
,3.724005,1.21E-09,,
,3.726005,1.20E-09,,
,3.728005,1.18E-09,,
,3.730005,1.17E-09,,
,3.732005,1.15E-09,,
,3.734005,1.14E-09,,
,3.736005,1.12E-09,,
,3.738005,1.11E-09,,
,3.740005,1.10E-09,,
,3.742005,1.08E-09,,
,3.744005,1.07E-09,,
,3.746005,1.06E-09,,
,3.748005,1.05E-09,,
,3.750005,1.03E-09,,
,3.752005,1.02E-09,,
,3.754005,1.01E-09,,
,3.756005,9.98E-10,,
,3.758005,9.87E-10,,
,3.760005,9.75E-10,,
,3.762005,9.64E-10,,
,3.764005,9.53E-10,,
,3.766005,9.42E-10,,
,3.768005,9.32E-10,,
,3.770005,9.21E-10,,
,3.772005,9.10E-10,,
,3.774005,8.99E-10,,
,3.776005,8.88E-10,,
,3.778005,8.78E-10,,
,3.780005,8.68E-10,,
,3.782005,8.59E-10,,
,3.784005,8.50E-10,,
,3.786005,8.41E-10,,
,3.788005,8.31E-10,,
,3.790005,8.22E-10,,
,3.792005,8.13E-10,,
,3.794005,8.04E-10,,
,3.796005,7.96E-10,,
,3.798005,7.88E-10,,
,3.800005,7.80E-10,,
,3.802005,7.73E-10,,
,3.804005,7.65E-10,,
,3.806005,7.58E-10,,
,3.808005,7.50E-10,,
,3.810005,7.43E-10,,
,3.812005,7.36E-10,,
,3.814005,7.30E-10,,
,3.816005,7.23E-10,,
,3.818005,7.16E-10,,
,3.820005,7.10E-10,,
,3.822005,7.03E-10,,
,3.824005,6.96E-10,,
,3.826005,6.89E-10,,
,3.828005,6.83E-10,,
,3.830005,6.77E-10,,
,3.832005,6.72E-10,,
,3.834005,6.66E-10,,
,3.836005,6.60E-10,,
,3.838005,6.54E-10,,
,3.840005,6.47E-10,,
,3.842005,6.41E-10,,
,3.844005,6.35E-10,,
,3.846005,6.28E-10,,
,3.848005,6.22E-10,,
,3.850005,6.15E-10,,
,3.852005,6.09E-10,,
,3.854005,6.03E-10,,
,3.856005,5.97E-10,,
,3.858005,5.90E-10,,
,3.860005,5.84E-10,,
,3.862005,5.78E-10,,
,3.864005,5.71E-10,,
,3.866005,5.66E-10,,
,3.868005,5.59E-10,,
,3.870005,5.53E-10,,
,3.872005,5.46E-10,,
,3.874005,5.39E-10,,
,3.876005,5.32E-10,,
,3.878005,5.25E-10,,
,3.880005,5.19E-10,,
,3.882005,5.12E-10,,
,3.884005,5.05E-10,,
,3.886005,4.99E-10,,
,3.888005,4.93E-10,,
,3.890005,4.86E-10,,
,3.892005,4.80E-10,,
,3.894005,4.74E-10,,
,3.896005,4.68E-10,,
,3.898005,4.62E-10,,
,3.900005,4.57E-10,,
,3.902005,4.52E-10,,
,3.904005,4.46E-10,,
,3.906005,4.40E-10,,
,3.908005,4.34E-10,,
,3.910005,4.29E-10,,
,3.912005,4.24E-10,,
,3.914005,4.20E-10,,
,3.916005,4.16E-10,,
,3.918005,4.12E-10,,
,3.920005,4.08E-10,,
,3.922005,4.04E-10,,
,3.924005,4.00E-10,,
,3.926005,3.97E-10,,
,3.928005,3.94E-10,,
,3.930005,3.91E-10,,
,3.932005,3.88E-10,,
,3.934005,3.85E-10,,
,3.936005,3.82E-10,,
,3.938005,3.79E-10,,
,3.940005,3.77E-10,,
,3.942005,3.73E-10,,
,3.944005,3.70E-10,,
,3.946005,3.67E-10,,
,3.948005,3.65E-10,,
,3.950005,3.63E-10,,
,3.952005,3.60E-10,,
,3.954005,3.58E-10,,
,3.956005,3.55E-10,,
,3.958005,3.51E-10,,
,3.960005,3.48E-10,,
,3.962005,3.45E-10,,
,3.964005,3.42E-10,,
,3.966005,3.38E-10,,
,3.968005,3.34E-10,,
,3.970005,3.30E-10,,
,3.972005,3.26E-10,,
,3.974005,3.21E-10,,
,3.976005,3.17E-10,,
,3.978005,3.12E-10,,
,3.980005,3.08E-10,,
,3.982005,3.03E-10,,
,3.984005,2.98E-10,,
,3.986005,2.93E-10,,
,3.988005,2.87E-10,,
,3.990005,2.82E-10,,
,3.992005,2.76E-10,,
,3.994005,2.70E-10,,
,3.996005,2.64E-10,,
,3.998005,2.58E-10,,
,4.000005,2.52E-10,,
,4.002005,2.46E-10,,
,4.004005,2.39E-10,,
,4.006005,2.33E-10,,
,4.008005,2.26E-10,,
,4.010005,2.19E-10,,
,4.012005,2.12E-10,,
,4.014005,2.06E-10,,
,4.016005,1.99E-10,,
,4.018005,1.93E-10,,
,4.020005,1.86E-10,,
,4.022005,1.79E-10,,
,4.024005,1.71E-10,,
,4.026005,1.64E-10,,
,4.028005,1.57E-10,,
,4.030005,1.50E-10,,
,4.032005,1.44E-10,,
,4.034005,1.37E-10,,
,4.036005,1.31E-10,,
,4.038005,1.24E-10,,
,4.040005,1.17E-10,,
,4.042005,1.09E-10,,
,4.044005,1.02E-10,,
,4.046005,9.54E-11,,
,4.048005,8.88E-11,,
,4.050005,8.24E-11,,
,4.052005,7.62E-11,,
,4.054005,6.98E-11,,
,4.056005,6.35E-11,,
,4.058005,5.74E-11,,
,4.060005,5.19E-11,,
,4.062005,4.66E-11,,
,4.064005,4.17E-11,,
,4.066005,3.70E-11,,
,4.068005,3.24E-11,,
,4.070005,2.76E-11,,
,4.072005,2.24E-11,,
,4.074005,1.73E-11,,
,4.076005,1.23E-11,,
,4.078005,8.03E-12,,
,4.080005,4.05E-12,,
,4.082005,4.04E-13,,
,4.084005,-2.92E-12,,
,4.086005,-5.93E-12,,
,4.088005,-8.61E-12,,
,4.090005,-1.12E-11,,
,4.092005,-1.34E-11,,
,4.094005,-1.54E-11,,
,4.096005,-1.69E-11,,
,4.098005,-1.80E-11,,
,4.100005,-1.89E-11,,
,4.102005,-1.98E-11,,
,4.104005,-2.06E-11,,
,4.106005,-2.19E-11,,
,4.108005,-2.32E-11,,
,4.110005,-2.47E-11,,
,4.112005,-2.55E-11,,
,4.114005,-2.63E-11,,
,4.116005,-2.68E-11,,
,4.118005,-2.72E-11,,
,4.120005,-2.75E-11,,
,4.122005,-2.80E-11,,
,4.124005,-2.87E-11,,
,4.126005,-2.91E-11,,
,4.128005,-2.91E-11,,
,4.130005,-2.90E-11,,
,4.132005,-2.88E-11,,
,4.134005,-2.87E-11,,
,4.136005,-2.85E-11,,
,4.138005,-2.84E-11,,
,4.140005,-2.86E-11,,
,4.142005,-2.90E-11,,
,4.144005,-2.94E-11,,
,4.146005,-2.93E-11,,
,4.148005,-2.88E-11,,
,4.150005,-2.78E-11,,
,4.152005,-2.69E-11,,
,4.154005,-2.59E-11,,
,4.156005,-2.50E-11,,
,4.158005,-2.40E-11,,
,4.160005,-2.26E-11,,
,4.162005,-2.09E-11,,
,4.164005,-1.87E-11,,
,4.166005,-1.67E-11,,
,4.168005,-1.43E-11,,
,4.170005,-1.24E-11,,
,4.172005,-1.04E-11,,
,4.174005,-8.51E-12,,
,4.176005,-6.36E-12,,
,4.178005,-3.89E-12,,
,4.180005,-1.21E-12,,
,4.182005,1.91E-12,,
,4.184005,5.45E-12,,
,4.186005,8.89E-12,,
,4.188005,1.24E-11,,
,4.190005,1.56E-11,,
,4.192005,1.93E-11,,
,4.194005,2.31E-11,,
,4.196005,2.72E-11,,
,4.198005,3.16E-11,,
,4.200005,3.60E-11,,
,4.202005,4.03E-11,,
,4.204005,4.44E-11,,
,4.206005,4.85E-11,,
,4.208005,5.27E-11,,
,4.210005,5.71E-11,,
,4.212005,6.16E-11,,
,4.214005,6.60E-11,,
,4.216005,7.07E-11,,
,4.218005,7.57E-11,,
,4.220005,8.10E-11,,
,4.222005,8.59E-11,,
,4.224005,9.07E-11,,
,4.226005,9.57E-11,,
,4.228005,1.01E-10,,
,4.230005,1.07E-10,,
,4.232005,1.13E-10,,
,4.234005,1.19E-10,,
,4.236005,1.24E-10,,
,4.238005,1.30E-10,,
,4.240005,1.36E-10,,
,4.242005,1.42E-10,,
,4.244005,1.48E-10,,
,4.246005,1.55E-10,,
,4.248005,1.62E-10,,
,4.250005,1.69E-10,,
,4.252005,1.77E-10,,
,4.254005,1.85E-10,,
,4.256005,1.93E-10,,
,4.258005,2.01E-10,,
,4.260005,2.09E-10,,
,4.262005,2.17E-10,,
,4.264005,2.26E-10,,
,4.266005,2.35E-10,,
,4.268005,2.45E-10,,
,4.270005,2.54E-10,,
,4.272005,2.63E-10,,
,4.274005,2.72E-10,,
,4.276005,2.81E-10,,
,4.278005,2.90E-10,,
,4.280005,3.00E-10,,
,4.282005,3.09E-10,,
,4.284005,3.19E-10,,
,4.286005,3.28E-10,,
,4.288005,3.37E-10,,
,4.290005,3.45E-10,,
,4.292005,3.53E-10,,
,4.294005,3.61E-10,,
,4.296005,3.69E-10,,
,4.298005,3.76E-10,,
,4.300005,3.83E-10,,
,4.302005,3.90E-10,,
,4.304005,3.96E-10,,
,4.306005,4.01E-10,,
,4.308005,4.05E-10,,
,4.310005,4.09E-10,,
,4.312005,4.12E-10,,
,4.314005,4.16E-10,,
,4.316005,4.19E-10,,
,4.318005,4.22E-10,,
,4.320005,4.24E-10,,
,4.322005,4.26E-10,,
,4.324005,4.27E-10,,
,4.326005,4.28E-10,,
,4.328005,4.28E-10,,
,4.330005,4.28E-10,,
,4.332005,4.28E-10,,
,4.334005,4.27E-10,,
,4.336005,4.27E-10,,
,4.338005,4.25E-10,,
,4.340005,4.23E-10,,
,4.342005,4.21E-10,,
,4.344005,4.19E-10,,
,4.346005,4.16E-10,,
,4.348005,4.14E-10,,
,4.350005,4.11E-10,,
,4.352005,4.09E-10,,
,4.354005,4.06E-10,,
,4.356005,4.02E-10,,
,4.358005,3.98E-10,,
,4.360005,3.95E-10,,
,4.362005,3.91E-10,,
,4.364005,3.87E-10,,
,4.366005,3.84E-10,,
,4.368005,3.80E-10,,
,4.370005,3.76E-10,,
,4.372005,3.71E-10,,
,4.374005,3.67E-10,,
,4.376005,3.62E-10,,
,4.378005,3.57E-10,,
,4.380005,3.53E-10,,
,4.382005,3.48E-10,,
,4.384005,3.44E-10,,
,4.386005,3.40E-10,,
,4.388005,3.36E-10,,
,4.390005,3.31E-10,,
,4.392005,3.27E-10,,
,4.394005,3.23E-10,,
,4.396005,3.19E-10,,
,4.398005,3.15E-10,,
,4.400005,3.12E-10,,
,4.402005,3.08E-10,,
,4.404005,3.05E-10,,
,4.406005,3.01E-10,,
,4.408005,2.97E-10,,
,4.410005,2.94E-10,,
,4.412005,2.91E-10,,
,4.414005,2.88E-10,,
,4.416005,2.86E-10,,
,4.418005,2.84E-10,,
,4.420005,2.81E-10,,
,4.422005,2.79E-10,,
,4.424005,2.77E-10,,
,4.426005,2.75E-10,,
,4.428005,2.73E-10,,
,4.430005,2.72E-10,,
,4.432005,2.70E-10,,
,4.434005,2.69E-10,,
,4.436005,2.67E-10,,
,4.438005,2.66E-10,,
,4.440005,2.64E-10,,
,4.442005,2.62E-10,,
,4.444005,2.61E-10,,
,4.446005,2.59E-10,,
,4.448005,2.58E-10,,
,4.450005,2.58E-10,,
,4.452005,2.57E-10,,
,4.454005,2.56E-10,,
,4.456005,2.54E-10,,
,4.458005,2.52E-10,,
,4.460005,2.51E-10,,
,4.462005,2.49E-10,,
,4.464005,2.48E-10,,
,4.466005,2.46E-10,,
,4.468005,2.45E-10,,
,4.470005,2.44E-10,,
,4.472005,2.42E-10,,
,4.474005,2.40E-10,,
,4.476005,2.39E-10,,
,4.478005,2.37E-10,,
,4.480005,2.36E-10,,
,4.482005,2.35E-10,,
,4.484005,2.34E-10,,
,4.486005,2.32E-10,,
,4.488005,2.31E-10,,
,4.490005,2.29E-10,,
,4.492005,2.26E-10,,
,4.494005,2.25E-10,,
,4.496005,2.23E-10,,
,4.498005,2.22E-10,,
,4.500005,2.21E-10,,
,4.502005,2.21E-10,,
,4.504005,2.20E-10,,
,4.506005,2.19E-10,,
,4.508005,2.18E-10,,
,4.510005,2.17E-10,,
,4.512005,2.16E-10,,
,4.514005,2.15E-10,,
,4.516005,2.14E-10,,
,4.518005,2.13E-10,,
,4.520005,2.12E-10,,
,4.522005,2.11E-10,,
,4.524005,2.10E-10,,
,4.526005,2.09E-10,,
,4.528005,2.09E-10,,
,4.530005,2.08E-10,,
,4.532005,2.08E-10,,
,4.534005,2.08E-10,,
,4.536005,2.09E-10,,
,4.538005,2.08E-10,,
,4.540005,2.08E-10,,
,4.542005,2.07E-10,,
,4.544005,2.07E-10,,
,4.546005,2.07E-10,,
,4.548005,2.07E-10,,
,4.550005,2.07E-10,,
,4.552005,2.07E-10,,
,4.554005,2.07E-10,,
,4.556005,2.07E-10,,
,4.558005,2.07E-10,,
,4.560005,2.07E-10,,
,4.562005,2.08E-10,,
,4.564005,2.09E-10,,
,4.566005,2.10E-10,,
,4.568005,2.11E-10,,
,4.570005,2.12E-10,,
,4.572005,2.12E-10,,
,4.574005,2.12E-10,,
,4.576005,2.12E-10,,
,4.578005,2.13E-10,,
,4.580005,2.13E-10,,
,4.582005,2.14E-10,,
,4.584005,2.15E-10,,
,4.586005,2.16E-10,,
,4.588005,2.17E-10,,
,4.590005,2.18E-10,,
,4.592005,2.19E-10,,
,4.594005,2.20E-10,,
,4.596005,2.22E-10,,
,4.598005,2.24E-10,,
,4.600005,2.26E-10,,
,4.602005,2.27E-10,,
,4.604005,2.29E-10,,
,4.606005,2.30E-10,,
,4.608005,2.30E-10,,
,4.610005,2.31E-10,,
,4.612005,2.33E-10,,
,4.614005,2.34E-10,,
,4.616005,2.36E-10,,
,4.618005,2.38E-10,,
,4.620005,2.39E-10,,
,4.622005,2.41E-10,,
,4.624005,2.42E-10,,
,4.626005,2.43E-10,,
,4.628005,2.44E-10,,
,4.630005,2.46E-10,,
,4.632005,2.48E-10,,
,4.634005,2.49E-10,,
,4.636005,2.51E-10,,
,4.638005,2.52E-10,,
,4.640005,2.52E-10,,
,4.642005,2.52E-10,,
,4.644005,2.53E-10,,
,4.646005,2.53E-10,,
,4.648005,2.54E-10,,
,4.650005,2.55E-10,,
,4.652005,2.56E-10,,
,4.654005,2.57E-10,,
,4.656005,2.57E-10,,
,4.658005,2.58E-10,,
,4.660005,2.58E-10,,
,4.662005,2.59E-10,,
,4.664005,2.60E-10,,
,4.666005,2.60E-10,,
,4.668005,2.60E-10,,
,4.670005,2.61E-10,,
,4.672005,2.60E-10,,
,4.674005,2.60E-10,,
,4.676005,2.59E-10,,
,4.678005,2.58E-10,,
,4.680005,2.58E-10,,
,4.682005,2.58E-10,,
,4.684005,2.58E-10,,
,4.686005,2.58E-10,,
,4.688005,2.58E-10,,
,4.690005,2.58E-10,,
,4.692005,2.58E-10,,
,4.694005,2.57E-10,,
,4.696005,2.57E-10,,
,4.698005,2.57E-10,,
,4.700005,2.56E-10,,
,4.702005,2.56E-10,,
,4.704005,2.55E-10,,
,4.706005,2.54E-10,,
,4.708005,2.53E-10,,
,4.710005,2.52E-10,,
,4.712005,2.51E-10,,
,4.714005,2.50E-10,,
,4.716005,2.50E-10,,
,4.718005,2.50E-10,,
,4.720005,2.50E-10,,
,4.722005,2.49E-10,,
,4.724005,2.49E-10,,
,4.726005,2.48E-10,,
,4.728005,2.47E-10,,
,4.730005,2.46E-10,,
,4.732005,2.45E-10,,
,4.734005,2.44E-10,,
,4.736005,2.43E-10,,
,4.738005,2.42E-10,,
,4.740005,2.41E-10,,
,4.742005,2.39E-10,,
,4.744005,2.38E-10,,
,4.746005,2.38E-10,,
,4.748005,2.37E-10,,
,4.750005,2.36E-10,,
,4.752005,2.35E-10,,
,4.754005,2.34E-10,,
,4.756005,2.33E-10,,
,4.758005,2.31E-10,,
,4.760005,2.29E-10,,
,4.762005,2.28E-10,,
,4.764005,2.27E-10,,
,4.766005,2.26E-10,,
,4.768005,2.25E-10,,
,4.770005,2.23E-10,,
,4.772005,2.22E-10,,
,4.774005,2.20E-10,,
,4.776005,2.18E-10,,
,4.778005,2.17E-10,,
,4.780005,2.15E-10,,
,4.782005,2.14E-10,,
,4.784005,2.13E-10,,
,4.786005,2.12E-10,,
,4.788005,2.10E-10,,
,4.790005,2.08E-10,,
,4.792005,2.06E-10,,
,4.794005,2.04E-10,,
,4.796005,2.03E-10,,
,4.798005,2.01E-10,,
,4.800005,1.99E-10,,
,4.802005,1.98E-10,,
,4.804005,1.96E-10,,
,4.806005,1.95E-10,,
,4.808005,1.93E-10,,
,4.810005,1.90E-10,,
,4.812005,1.88E-10,,
,4.814005,1.87E-10,,
,4.816005,1.86E-10,,
,4.818005,1.84E-10,,
,4.820005,1.82E-10,,
,4.822005,1.80E-10,,
,4.824005,1.78E-10,,
,4.826005,1.76E-10,,
,4.828005,1.74E-10,,
,4.830005,1.73E-10,,
,4.832005,1.71E-10,,
,4.834005,1.70E-10,,
,4.836005,1.68E-10,,
,4.838005,1.66E-10,,
,4.840005,1.64E-10,,
,4.842005,1.62E-10,,
,4.844005,1.60E-10,,
,4.846005,1.58E-10,,
,4.848005,1.56E-10,,
,4.850005,1.54E-10,,
,4.852005,1.52E-10,,
,4.854005,1.50E-10,,
,4.856005,1.48E-10,,
,4.858005,1.46E-10,,
,4.860005,1.44E-10,,
,4.862005,1.42E-10,,
,4.864005,1.40E-10,,
,4.866005,1.39E-10,,
,4.868005,1.37E-10,,
,4.870005,1.35E-10,,
,4.872005,1.33E-10,,
,4.874005,1.31E-10,,
,4.876005,1.28E-10,,
,4.878005,1.27E-10,,
,4.880005,1.25E-10,,
,4.882005,1.23E-10,,
,4.884005,1.21E-10,,
,4.886005,1.20E-10,,
,4.888005,1.18E-10,,
,4.890005,1.16E-10,,
,4.892005,1.15E-10,,
,4.894005,1.13E-10,,
,4.896005,1.12E-10,,
,4.898005,1.10E-10,,
,4.900005,1.09E-10,,
,4.902005,1.08E-10,,
,4.904005,1.06E-10,,
,4.906005,1.04E-10,,
,4.908005,1.02E-10,,
,4.910005,1.00E-10,,
,4.912005,9.86E-11,,
,4.914005,9.69E-11,,
,4.916005,9.55E-11,,
,4.918005,9.41E-11,,
,4.920005,9.26E-11,,
,4.922005,9.07E-11,,
,4.924005,8.88E-11,,
,4.926005,8.66E-11,,
,4.928005,8.49E-11,,
,4.930005,8.31E-11,,
,4.932005,8.14E-11,,
,4.934005,7.95E-11,,
,4.936005,7.75E-11,,
,4.938005,7.53E-11,,
,4.940005,7.28E-11,,
,4.942005,7.03E-11,,
,4.944005,6.76E-11,,
,4.946005,6.51E-11,,
,4.948005,6.25E-11,,
,4.950005,6.01E-11,,
,4.952005,5.73E-11,,
,4.954005,5.44E-11,,
,4.956005,5.09E-11,,
,4.958005,4.75E-11,,
,4.960005,4.42E-11,,
,4.962005,4.12E-11,,
,4.964005,3.82E-11,,
,4.966005,3.52E-11,,
,4.968005,3.22E-11,,
,4.970005,2.87E-11,,
,4.972005,2.49E-11,,
,4.974005,2.07E-11,,
,4.976005,1.64E-11,,
,4.978005,1.22E-11,,
,4.980005,8.24E-12,,
,4.982005,4.16E-12,,
,4.984005,2.97E-13,,
,4.986005,-3.89E-12,,
,4.988005,-7.97E-12,,
,4.990005,-1.24E-11,,
,4.992005,-1.67E-11,,
,4.994005,-2.12E-11,,
,4.996005,-2.57E-11,,
,4.998005,-3.03E-11,,
,5.000005,-3.48E-11,,
,5.002005,-3.93E-11,,
,5.004005,-4.44E-11,,
,5.006005,-4.96E-11,,
,5.008005,-5.51E-11,,
,5.010005,-6.05E-11,,
,5.012005,-6.54E-11,,
,5.014005,-7.03E-11,,
,5.016005,-7.49E-11,,
,5.018005,-7.95E-11,,
,5.020005,-8.39E-11,,
,5.022005,-8.88E-11,,
,5.024005,-9.39E-11,,
,5.026005,-9.91E-11,,
,5.028005,-1.04E-10,,
,5.030005,-1.09E-10,,
,5.032005,-1.13E-10,,
,5.034005,-1.18E-10,,
,5.036005,-1.23E-10,,
,5.038005,-1.28E-10,,
,5.040005,-1.33E-10,,
,5.042005,-1.37E-10,,
,5.044005,-1.42E-10,,
,5.046005,-1.47E-10,,
,5.048005,-1.51E-10,,
,5.050005,-1.55E-10,,
,5.052005,-1.59E-10,,
,5.054005,-1.64E-10,,
,5.056005,-1.68E-10,,
,5.058005,-1.72E-10,,
,5.060005,-1.77E-10,,
,5.062005,-1.81E-10,,
,5.064005,-1.84E-10,,
,5.066005,-1.87E-10,,
,5.068005,-1.91E-10,,
,5.070005,-1.94E-10,,
,5.072005,-1.98E-10,,
,5.074005,-2.01E-10,,
,5.076005,-2.04E-10,,
,5.078005,-2.07E-10,,
,5.080005,-2.10E-10,,
,5.082005,-2.12E-10,,
,5.084005,-2.14E-10,,
,5.086005,-2.17E-10,,
,5.088005,-2.19E-10,,
,5.090005,-2.22E-10,,
,5.092005,-2.24E-10,,
,5.094005,-2.26E-10,,
,5.096005,-2.28E-10,,
,5.098005,-2.30E-10,,
,5.100005,-2.31E-10,,
,5.102005,-2.33E-10,,
,5.104005,-2.35E-10,,
,5.106005,-2.36E-10,,
,5.108005,-2.38E-10,,
,5.110005,-2.40E-10,,
,5.112005,-2.41E-10,,
,5.114005,-2.42E-10,,
,5.116005,-2.43E-10,,
,5.118005,-2.44E-10,,
,5.120005,-2.46E-10,,
,5.122005,-2.47E-10,,
,5.124005,-2.48E-10,,
,5.126005,-2.50E-10,,
,5.128005,-2.51E-10,,
,5.130005,-2.52E-10,,
,5.132005,-2.54E-10,,
,5.134005,-2.55E-10,,
,5.136005,-2.56E-10,,
,5.138005,-2.58E-10,,
,5.140005,-2.59E-10,,
,5.142005,-2.61E-10,,
,5.144005,-2.62E-10,,
,5.146005,-2.63E-10,,
,5.148005,-2.64E-10,,
,5.150005,-2.65E-10,,
,5.152005,-2.66E-10,,
,5.154005,-2.68E-10,,
,5.156005,-2.69E-10,,
,5.158005,-2.71E-10,,
,5.160005,-2.73E-10,,
,5.162005,-2.74E-10,,
,5.164005,-2.75E-10,,
,5.166005,-2.76E-10,,
,5.168005,-2.77E-10,,
,5.170005,-2.79E-10,,
,5.172005,-2.80E-10,,
,5.174005,-2.82E-10,,
,5.176005,-2.84E-10,,
,5.178005,-2.86E-10,,
,5.180005,-2.88E-10,,
,5.182005,-2.89E-10,,
,5.184005,-2.91E-10,,
,5.186005,-2.92E-10,,
,5.188005,-2.94E-10,,
,5.190005,-2.97E-10,,
,5.192005,-2.99E-10,,
,5.194005,-3.02E-10,,
,5.196005,-3.04E-10,,
,5.198005,-3.07E-10,,
,5.200005,-3.09E-10,,
,5.202005,-3.11E-10,,
,5.204005,-3.13E-10,,
,5.206005,-3.16E-10,,
,5.208005,-3.19E-10,,
,5.210005,-3.22E-10,,
,5.212005,-3.25E-10,,
,5.214005,-3.28E-10,,
,5.216005,-3.31E-10,,
,5.218005,-3.34E-10,,
,5.220005,-3.37E-10,,
,5.222005,-3.41E-10,,
,5.224005,-3.45E-10,,
,5.226005,-3.49E-10,,
,5.228005,-3.53E-10,,
,5.230005,-3.56E-10,,
,5.232005,-3.59E-10,,
,5.234005,-3.63E-10,,
,5.236005,-3.66E-10,,
,5.238005,-3.70E-10,,
,5.240005,-3.74E-10,,
,5.242005,-3.78E-10,,
,5.244005,-3.82E-10,,
,5.246005,-3.87E-10,,
,5.248005,-3.91E-10,,
,5.250005,-3.95E-10,,
,5.252005,-3.99E-10,,
,5.254005,-4.04E-10,,
,5.256005,-4.09E-10,,
,5.258005,-4.14E-10,,
,5.260005,-4.19E-10,,
,5.262005,-4.24E-10,,
,5.264005,-4.28E-10,,
,5.266005,-4.32E-10,,
,5.268005,-4.37E-10,,
,5.270005,-4.41E-10,,
,5.272005,-4.46E-10,,
,5.274005,-4.51E-10,,
,5.276005,-4.57E-10,,
,5.278005,-4.62E-10,,
,5.280005,-4.67E-10,,
,5.282005,-4.71E-10,,
,5.284005,-4.76E-10,,
,5.286005,-4.81E-10,,
,5.288005,-4.85E-10,,
,5.290005,-4.90E-10,,
,5.292005,-4.95E-10,,
,5.294005,-5.00E-10,,
,5.296005,-5.04E-10,,
,5.298005,-5.08E-10,,
,5.300005,-5.12E-10,,
,5.302005,-5.16E-10,,
,5.304005,-5.20E-10,,
,5.306005,-5.25E-10,,
,5.308005,-5.29E-10,,
,5.310005,-5.33E-10,,
,5.312005,-5.38E-10,,
,5.314005,-5.41E-10,,
,5.316005,-5.45E-10,,
,5.318005,-5.48E-10,,
,5.320005,-5.51E-10,,
,5.322005,-5.55E-10,,
,5.324005,-5.58E-10,,
,5.326005,-5.61E-10,,
,5.328005,-5.64E-10,,
,5.330005,-5.66E-10,,
,5.332005,-5.68E-10,,
,5.334005,-5.70E-10,,
,5.336005,-5.71E-10,,
,5.338005,-5.73E-10,,
,5.340005,-5.75E-10,,
,5.342005,-5.77E-10,,
,5.344005,-5.79E-10,,
,5.346005,-5.80E-10,,
,5.348005,-5.80E-10,,
,5.350005,-5.81E-10,,
,5.352005,-5.80E-10,,
,5.354005,-5.80E-10,,
,5.356005,-5.80E-10,,
,5.358005,-5.80E-10,,
,5.360005,-5.80E-10,,
,5.362005,-5.79E-10,,
,5.364005,-5.77E-10,,
,5.366005,-5.76E-10,,
,5.368005,-5.74E-10,,
,5.370005,-5.72E-10,,
,5.372005,-5.70E-10,,
,5.374005,-5.68E-10,,
,5.376005,-5.66E-10,,
,5.378005,-5.63E-10,,
,5.380005,-5.60E-10,,
,5.382005,-5.57E-10,,
,5.384005,-5.53E-10,,
,5.386005,-5.49E-10,,
,5.388005,-5.45E-10,,
,5.390005,-5.42E-10,,
,5.392005,-5.38E-10,,
,5.394005,-5.34E-10,,
,5.396005,-5.30E-10,,
,5.398005,-5.26E-10,,
,5.400005,-5.21E-10,,
,5.402005,-5.16E-10,,
,5.404005,-5.11E-10,,
,5.406005,-5.07E-10,,
,5.408005,-5.02E-10,,
,5.410005,-4.98E-10,,
,5.412005,-4.93E-10,,
,5.414005,-4.88E-10,,
,5.416005,-4.82E-10,,
,5.418005,-4.77E-10,,
,5.420005,-4.72E-10,,
,5.422005,-4.67E-10,,
,5.424005,-4.62E-10,,
,5.426005,-4.57E-10,,
,5.428005,-4.52E-10,,
,5.430005,-4.47E-10,,
,5.432005,-4.41E-10,,
,5.434005,-4.35E-10,,
,5.436005,-4.29E-10,,
,5.438005,-4.24E-10,,
,5.440005,-4.19E-10,,
,5.442005,-4.14E-10,,
,5.444005,-4.09E-10,,
,5.446005,-4.03E-10,,
,5.448005,-3.98E-10,,
,5.450005,-3.92E-10,,
,5.452005,-3.87E-10,,
,5.454005,-3.81E-10,,
,5.456005,-3.76E-10,,
,5.458005,-3.71E-10,,
,5.460005,-3.66E-10,,
,5.462005,-3.61E-10,,
,5.464005,-3.55E-10,,
,5.466005,-3.50E-10,,
,5.468005,-3.44E-10,,
,5.470005,-3.39E-10,,
,5.472005,-3.34E-10,,
,5.474005,-3.29E-10,,
,5.476005,-3.25E-10,,
,5.478005,-3.20E-10,,
,5.480005,-3.15E-10,,
,5.482005,-3.10E-10,,
,5.484005,-3.04E-10,,
,5.486005,-2.99E-10,,
,5.488005,-2.93E-10,,
,5.490005,-2.88E-10,,
,5.492005,-2.84E-10,,
,5.494005,-2.79E-10,,
,5.496005,-2.74E-10,,
,5.498005,-2.68E-10,,
,5.500005,-2.63E-10,,
,5.502005,-2.57E-10,,
,5.504005,-2.52E-10,,
,5.506005,-2.47E-10,,
,5.508005,-2.42E-10,,
,5.510005,-2.37E-10,,
,5.512005,-2.32E-10,,
,5.514005,-2.27E-10,,
,5.516005,-2.21E-10,,
,5.518005,-2.15E-10,,
,5.520005,-2.10E-10,,
,5.522005,-2.05E-10,,
,5.524005,-2.00E-10,,
,5.526005,-1.96E-10,,
,5.528005,-1.91E-10,,
,5.530005,-1.86E-10,,
,5.532005,-1.81E-10,,
,5.534005,-1.75E-10,,
,5.536005,-1.70E-10,,
,5.538005,-1.65E-10,,
,5.540005,-1.60E-10,,
,5.542005,-1.56E-10,,
,5.544005,-1.51E-10,,
,5.546005,-1.47E-10,,
,5.548005,-1.42E-10,,
,5.550005,-1.38E-10,,
,5.552005,-1.33E-10,,
,5.554005,-1.29E-10,,
,5.556005,-1.26E-10,,
,5.558005,-1.23E-10,,
,5.560005,-1.20E-10,,
,5.562005,-1.16E-10,,
,5.564005,-1.13E-10,,
,5.566005,-1.08E-10,,
,5.568005,-1.04E-10,,
,5.570005,-1.00E-10,,
,5.572005,-9.68E-11,,
,5.574005,-9.37E-11,,
,5.576005,-9.07E-11,,
,5.578005,-8.78E-11,,
,5.580005,-8.47E-11,,
,5.582005,-8.16E-11,,
,5.584005,-7.84E-11,,
,5.586005,-7.53E-11,,
,5.588005,-7.25E-11,,
,5.590005,-6.96E-11,,
,5.592005,-6.67E-11,,
,5.594005,-6.35E-11,,
,5.596005,-6.04E-11,,
,5.598005,-5.68E-11,,
,5.600005,-5.34E-11,,
,5.602005,-4.97E-11,,
,5.604005,-4.67E-11,,
,5.606005,-4.39E-11,,
,5.608005,-4.14E-11,,
,5.610005,-3.87E-11,,
,5.612005,-3.60E-11,,
,5.614005,-3.30E-11,,
,5.616005,-2.98E-11,,
,5.618005,-2.62E-11,,
,5.620005,-2.29E-11,,
,5.622005,-2.00E-11,,
,5.624005,-1.70E-11,,
,5.626005,-1.42E-11,,
,5.628005,-1.10E-11,,
,5.630005,-7.43E-12,,
,5.632005,-3.57E-12,,
,5.634005,5.11E-13,,
,5.636005,4.27E-12,,
,5.638005,7.81E-12,,
,5.640005,1.08E-11,,
,5.642005,1.38E-11,,
,5.644005,1.67E-11,,
,5.646005,2.01E-11,,
,5.648005,2.36E-11,,
,5.650005,2.74E-11,,
,5.652005,3.09E-11,,
,5.654005,3.40E-11,,
,5.656005,3.72E-11,,
,5.658005,4.06E-11,,
,5.660005,4.37E-11,,
,5.662005,4.67E-11,,
,5.664005,5.00E-11,,
,5.666005,5.38E-11,,
,5.668005,5.77E-11,,
,5.670005,6.13E-11,,
,5.672005,6.43E-11,,
,5.674005,6.69E-11,,
,5.676005,6.92E-11,,
,5.678005,7.20E-11,,
,5.680005,7.49E-11,,
,5.682005,7.80E-11,,
,5.684005,8.10E-11,,
,5.686005,8.40E-11,,
,5.688005,8.68E-11,,
,5.690005,8.93E-11,,
,5.692005,9.15E-11,,
,5.694005,9.39E-11,,
,5.696005,9.65E-11,,
,5.698005,9.91E-11,,
,5.700005,1.02E-10,,
,5.702005,1.04E-10,,
,5.704005,1.07E-10,,
,5.706005,1.09E-10,,
,5.708005,1.10E-10,,
,5.710005,1.11E-10,,
,5.712005,1.13E-10,,
,5.714005,1.14E-10,,
,5.716005,1.16E-10,,
,5.718005,1.18E-10,,
,5.720005,1.20E-10,,
,5.722005,1.21E-10,,
,5.724005,1.22E-10,,
,5.726005,1.23E-10,,
,5.728005,1.25E-10,,
,5.730005,1.26E-10,,
,5.732005,1.28E-10,,
,5.734005,1.29E-10,,
,5.736005,1.31E-10,,
,5.738005,1.32E-10,,
,5.740005,1.33E-10,,
,5.742005,1.33E-10,,
,5.744005,1.34E-10,,
,5.746005,1.36E-10,,
,5.748005,1.37E-10,,
,5.750005,1.38E-10,,
,5.752005,1.39E-10,,
,5.754005,1.41E-10,,
,5.756005,1.41E-10,,
,5.758005,1.42E-10,,
,5.760005,1.42E-10,,
,5.762005,1.43E-10,,
,5.764005,1.44E-10,,
,5.766005,1.45E-10,,
,5.768005,1.47E-10,,
,5.770005,1.48E-10,,
,5.772005,1.50E-10,,
,5.774005,1.50E-10,,
,5.776005,1.51E-10,,
,5.778005,1.53E-10,,
,5.780005,1.55E-10,,
,5.782005,1.58E-10,,
,5.784005,1.60E-10,,
,5.786005,1.63E-10,,
,5.788005,1.65E-10,,
,5.790005,1.68E-10,,
,5.792005,1.70E-10,,
,5.794005,1.73E-10,,
,5.796005,1.76E-10,,
,5.798005,1.79E-10,,
,5.800005,1.83E-10,,
,5.802005,1.87E-10,,
,5.804005,1.91E-10,,
,5.806005,1.95E-10,,
,5.808005,1.98E-10,,
,5.810005,2.02E-10,,
,5.812005,2.07E-10,,
,5.814005,2.11E-10,,
,5.816005,2.17E-10,,
,5.818005,2.22E-10,,
,5.820005,2.26E-10,,
,5.822005,2.31E-10,,
,5.824005,2.35E-10,,
,5.826005,2.40E-10,,
,5.828005,2.44E-10,,
,5.830005,2.50E-10,,
,5.832005,2.55E-10,,
,5.834005,2.61E-10,,
,5.836005,2.67E-10,,
,5.838005,2.72E-10,,
,5.840005,2.77E-10,,
,5.842005,2.82E-10,,
,5.844005,2.87E-10,,
,5.846005,2.92E-10,,
,5.848005,2.98E-10,,
,5.850005,3.03E-10,,
,5.852005,3.08E-10,,
,5.854005,3.13E-10,,
,5.856005,3.18E-10,,
,5.858005,3.23E-10,,
,5.860005,3.28E-10,,
,5.862005,3.33E-10,,
,5.864005,3.39E-10,,
,5.866005,3.44E-10,,
,5.868005,3.50E-10,,
,5.870005,3.55E-10,,
,5.872005,3.60E-10,,
,5.874005,3.65E-10,,
,5.876005,3.69E-10,,
,5.878005,3.74E-10,,
,5.880005,3.79E-10,,
,5.882005,3.83E-10,,
,5.884005,3.88E-10,,
,5.886005,3.93E-10,,
,5.888005,3.98E-10,,
,5.890005,4.03E-10,,
,5.892005,4.07E-10,,
,5.894005,4.11E-10,,
,5.896005,4.15E-10,,
,5.898005,4.20E-10,,
,5.900005,4.25E-10,,
,5.902005,4.30E-10,,
,5.904005,4.34E-10,,
,5.906005,4.37E-10,,
,5.908005,4.41E-10,,
,5.910005,4.44E-10,,
,5.912005,4.47E-10,,
,5.914005,4.51E-10,,
,5.916005,4.55E-10,,
,5.918005,4.58E-10,,
,5.920005,4.61E-10,,
,5.922005,4.64E-10,,
,5.924005,4.67E-10,,
,5.926005,4.69E-10,,
,5.928005,4.72E-10,,
,5.930005,4.75E-10,,
,5.932005,4.77E-10,,
,5.934005,4.80E-10,,
,5.936005,4.82E-10,,
,5.938005,4.83E-10,,
,5.940005,4.84E-10,,
,5.942005,4.84E-10,,
,5.944005,4.85E-10,,
,5.946005,4.85E-10,,
,5.948005,4.86E-10,,
,5.950005,4.86E-10,,
,5.952005,4.87E-10,,
,5.954005,4.87E-10,,
,5.956005,4.87E-10,,
,5.958005,4.86E-10,,
,5.960005,4.85E-10,,
,5.962005,4.85E-10,,
,5.964005,4.84E-10,,
,5.966005,4.84E-10,,
,5.968005,4.83E-10,,
,5.970005,4.83E-10,,
,5.972005,4.81E-10,,
,5.974005,4.80E-10,,
,5.976005,4.78E-10,,
,5.978005,4.76E-10,,
,5.980005,4.75E-10,,
,5.982005,4.73E-10,,
,5.984005,4.72E-10,,
,5.986005,4.70E-10,,
,5.988005,4.69E-10,,
,5.990005,4.67E-10,,
,5.992005,4.65E-10,,
,5.994005,4.64E-10,,
,5.996005,4.62E-10,,
,5.998005,4.61E-10,,
,6.000005,4.60E-10,,
,6.002005,4.59E-10,,
,6.004005,4.58E-10,,
,6.006005,4.57E-10,,
,6.008005,4.55E-10,,
,6.010005,4.53E-10,,
,6.012005,4.52E-10,,
,6.014005,4.51E-10,,
,6.016005,4.50E-10,,
,6.018005,4.50E-10,,
,6.020005,4.49E-10,,
,6.022005,4.48E-10,,
,6.024005,4.47E-10,,
,6.026005,4.45E-10,,
,6.028005,4.44E-10,,
,6.030005,4.43E-10,,
,6.032005,4.42E-10,,
,6.034005,4.41E-10,,
,6.036005,4.41E-10,,
,6.038005,4.39E-10,,
,6.040005,4.38E-10,,
,6.042005,4.36E-10,,
,6.044005,4.34E-10,,
,6.046005,4.32E-10,,
,6.048005,4.31E-10,,
,6.050005,4.29E-10,,
,6.052005,4.27E-10,,
,6.054005,4.25E-10,,
,6.056005,4.22E-10,,
,6.058005,4.20E-10,,
,6.060005,4.17E-10,,
,6.062005,4.15E-10,,
,6.064005,4.12E-10,,
,6.066005,4.10E-10,,
,6.068005,4.08E-10,,
,6.070005,4.06E-10,,
,6.072005,4.03E-10,,
,6.074005,4.00E-10,,
,6.076005,3.97E-10,,
,6.078005,3.94E-10,,
,6.080005,3.91E-10,,
,6.082005,3.88E-10,,
,6.084005,3.86E-10,,
,6.086005,3.84E-10,,
,6.088005,3.81E-10,,
,6.090005,3.79E-10,,
,6.092005,3.76E-10,,
,6.094005,3.73E-10,,
,6.096005,3.70E-10,,
,6.098005,3.69E-10,,
,6.100005,3.67E-10,,
,6.102005,3.65E-10,,
,6.104005,3.62E-10,,
,6.106005,3.60E-10,,
,6.108005,3.57E-10,,
,6.110005,3.54E-10,,
,6.112005,3.52E-10,,
,6.114005,3.50E-10,,
,6.116005,3.48E-10,,
,6.118005,3.46E-10,,
,6.120005,3.44E-10,,
,6.122005,3.42E-10,,
,6.124005,3.40E-10,,
,6.126005,3.38E-10,,
,6.128005,3.35E-10,,
,6.130005,3.33E-10,,
,6.132005,3.31E-10,,
,6.134005,3.29E-10,,
,6.136005,3.27E-10,,
,6.138005,3.25E-10,,
,6.140005,3.23E-10,,
,6.142005,3.20E-10,,
,6.144005,3.17E-10,,
,6.146005,3.15E-10,,
,6.148005,3.13E-10,,
,6.150005,3.11E-10,,
,6.152005,3.09E-10,,
,6.154005,3.06E-10,,
,6.156005,3.03E-10,,
,6.158005,3.00E-10,,
,6.160005,2.97E-10,,
,6.162005,2.95E-10,,
,6.164005,2.92E-10,,
,6.166005,2.90E-10,,
,6.168005,2.88E-10,,
,6.170005,2.85E-10,,
,6.172005,2.82E-10,,
,6.174005,2.79E-10,,
,6.176005,2.76E-10,,
,6.178005,2.73E-10,,
,6.180005,2.70E-10,,
,6.182005,2.66E-10,,
,6.184005,2.64E-10,,
,6.186005,2.61E-10,,
,6.188005,2.57E-10,,
,6.190005,2.54E-10,,
,6.192005,2.50E-10,,
,6.194005,2.46E-10,,
,6.196005,2.43E-10,,
,6.198005,2.39E-10,,
,6.200005,2.36E-10,,
,6.202005,2.32E-10,,
,6.204005,2.29E-10,,
,6.206005,2.25E-10,,
,6.208005,2.21E-10,,
,6.210005,2.17E-10,,
,6.212005,2.14E-10,,
,6.214005,2.10E-10,,
,6.216005,2.06E-10,,
,6.218005,2.03E-10,,
,6.220005,1.99E-10,,
,6.222005,1.95E-10,,
,6.224005,1.90E-10,,
,6.226005,1.85E-10,,
,6.228005,1.81E-10,,
,6.230005,1.76E-10,,
,6.232005,1.72E-10,,
,6.234005,1.68E-10,,
,6.236005,1.64E-10,,
,6.238005,1.59E-10,,
,6.240005,1.54E-10,,
,6.242005,1.49E-10,,
,6.244005,1.44E-10,,
,6.246005,1.39E-10,,
,6.248005,1.34E-10,,
,6.250005,1.29E-10,,
,6.252005,1.24E-10,,
,6.254005,1.19E-10,,
,6.256005,1.13E-10,,
,6.258005,1.07E-10,,
,6.260005,1.01E-10,,
,6.262005,9.51E-11,,
,6.264005,8.92E-11,,
,6.266005,8.35E-11,,
,6.268005,7.80E-11,,
,6.270005,7.24E-11,,
,6.272005,6.65E-11,,
,6.274005,5.99E-11,,
,6.276005,5.32E-11,,
,6.278005,4.64E-11,,
,6.280005,3.97E-11,,
,6.282005,3.31E-11,,
,6.284005,2.69E-11,,
,6.286005,2.03E-11,,
,6.288005,1.33E-11,,
,6.290005,5.77E-12,,
,6.292005,-1.85E-12,,
,6.294005,-9.37E-12,,
,6.296005,-1.70E-11,,
,6.298005,-2.39E-11,,
,6.300005,-3.11E-11,,
,6.302005,-3.78E-11,,
,6.304005,-4.55E-11,,
,6.306005,-5.35E-11,,
,6.308005,-6.21E-11,,
,6.310005,-7.05E-11,,
,6.312005,-7.91E-11,,
,6.314005,-8.76E-11,,
,6.316005,-9.63E-11,,
,6.318005,-1.05E-10,,
,6.320005,-1.13E-10,,
,6.322005,-1.22E-10,,
,6.324005,-1.31E-10,,
,6.326005,-1.40E-10,,
,6.328005,-1.49E-10,,
,6.330005,-1.57E-10,,
,6.332005,-1.65E-10,,
,6.334005,-1.73E-10,,
,6.336005,-1.81E-10,,
,6.338005,-1.88E-10,,
,6.340005,-1.97E-10,,
,6.342005,-2.05E-10,,
,6.344005,-2.13E-10,,
,6.346005,-2.20E-10,,
,6.348005,-2.27E-10,,
,6.350005,-2.33E-10,,
,6.352005,-2.39E-10,,
,6.354005,-2.45E-10,,
,6.356005,-2.52E-10,,
,6.358005,-2.58E-10,,
,6.360005,-2.63E-10,,
,6.362005,-2.68E-10,,
,6.364005,-2.72E-10,,
,6.366005,-2.76E-10,,
,6.368005,-2.79E-10,,
,6.370005,-2.82E-10,,
,6.372005,-2.85E-10,,
,6.374005,-2.88E-10,,
,6.376005,-2.91E-10,,
,6.378005,-2.94E-10,,
,6.380005,-2.95E-10,,
,6.382005,-2.97E-10,,
,6.384005,-2.98E-10,,
,6.386005,-2.99E-10,,
,6.388005,-3.01E-10,,
,6.390005,-3.02E-10,,
,6.392005,-3.03E-10,,
,6.394005,-3.03E-10,,
,6.396005,-3.04E-10,,
,6.398005,-3.03E-10,,
,6.400005,-3.02E-10,,
,6.402005,-3.01E-10,,
,6.404005,-3.01E-10,,
,6.406005,-3.00E-10,,
,6.408005,-3.00E-10,,
,6.410005,-2.99E-10,,
,6.412005,-2.99E-10,,
,6.414005,-2.98E-10,,
,6.416005,-2.96E-10,,
,6.418005,-2.95E-10,,
,6.420005,-2.93E-10,,
,6.422005,-2.92E-10,,
,6.424005,-2.91E-10,,
,6.426005,-2.90E-10,,
,6.428005,-2.89E-10,,
,6.430005,-2.87E-10,,
,6.432005,-2.85E-10,,
,6.434005,-2.82E-10,,
,6.436005,-2.80E-10,,
,6.438005,-2.77E-10,,
,6.440005,-2.75E-10,,
,6.442005,-2.73E-10,,
,6.444005,-2.71E-10,,
,6.446005,-2.69E-10,,
,6.448005,-2.66E-10,,
,6.450005,-2.64E-10,,
,6.452005,-2.61E-10,,
,6.454005,-2.58E-10,,
,6.456005,-2.56E-10,,
,6.458005,-2.54E-10,,
,6.460005,-2.52E-10,,
,6.462005,-2.50E-10,,
,6.464005,-2.47E-10,,
,6.466005,-2.44E-10,,
,6.468005,-2.41E-10,,
,6.470005,-2.38E-10,,
,6.472005,-2.36E-10,,
,6.474005,-2.34E-10,,
,6.476005,-2.33E-10,,
,6.478005,-2.31E-10,,
,6.480005,-2.29E-10,,
,6.482005,-2.27E-10,,
,6.484005,-2.25E-10,,
,6.486005,-2.24E-10,,
,6.488005,-2.23E-10,,
,6.490005,-2.22E-10,,
,6.492005,-2.21E-10,,
,6.494005,-2.21E-10,,
,6.496005,-2.19E-10,,
,6.498005,-2.18E-10,,
,6.500005,-2.17E-10,,
,6.502005,-2.15E-10,,
,6.504005,-2.15E-10,,
,6.506005,-2.14E-10,,
,6.508005,-2.14E-10,,
,6.510005,-2.15E-10,,
,6.512005,-2.15E-10,,
,6.514005,-2.15E-10,,
,6.516005,-2.15E-10,,
,6.518005,-2.15E-10,,
,6.520005,-2.15E-10,,
,6.522005,-2.15E-10,,
,6.524005,-2.16E-10,,
,6.526005,-2.17E-10,,
,6.528005,-2.17E-10,,
,6.530005,-2.18E-10,,
,6.532005,-2.18E-10,,
,6.534005,-2.18E-10,,
,6.536005,-2.19E-10,,
,6.538005,-2.20E-10,,
,6.540005,-2.21E-10,,
,6.542005,-2.23E-10,,
,6.544005,-2.24E-10,,
,6.546005,-2.26E-10,,
,6.548005,-2.27E-10,,
,6.550005,-2.28E-10,,
,6.552005,-2.28E-10,,
,6.554005,-2.29E-10,,
,6.556005,-2.30E-10,,
,6.558005,-2.32E-10,,
,6.560005,-2.33E-10,,
,6.562005,-2.34E-10,,
,6.564005,-2.35E-10,,
,6.566005,-2.35E-10,,
,6.568005,-2.35E-10,,
,6.570005,-2.36E-10,,
,6.572005,-2.37E-10,,
,6.574005,-2.37E-10,,
,6.576005,-2.38E-10,,
,6.578005,-2.39E-10,,
,6.580005,-2.40E-10,,
,6.582005,-2.40E-10,,
,6.584005,-2.39E-10,,
,6.586005,-2.39E-10,,
,6.588005,-2.38E-10,,
,6.590005,-2.38E-10,,
,6.592005,-2.39E-10,,
,6.594005,-2.39E-10,,
,6.596005,-2.39E-10,,
,6.598005,-2.39E-10,,
,6.600005,-2.38E-10,,
,6.602005,-2.37E-10,,
,6.604005,-2.37E-10,,
,6.606005,-2.37E-10,,
,6.608005,-2.38E-10,,
,6.610005,-2.39E-10,,
,6.612005,-2.39E-10,,
,6.614005,-2.40E-10,,
,6.616005,-2.40E-10,,
,6.618005,-2.40E-10,,
,6.620005,-2.41E-10,,
,6.622005,-2.41E-10,,
,6.624005,-2.43E-10,,
,6.626005,-2.45E-10,,
,6.628005,-2.47E-10,,
,6.630005,-2.48E-10,,
,6.632005,-2.50E-10,,
,6.634005,-2.51E-10,,
,6.636005,-2.53E-10,,
,6.638005,-2.56E-10,,
,6.640005,-2.59E-10,,
,6.642005,-2.62E-10,,
,6.644005,-2.65E-10,,
,6.646005,-2.68E-10,,
,6.648005,-2.70E-10,,
,6.650005,-2.73E-10,,
,6.652005,-2.76E-10,,
,6.654005,-2.79E-10,,
,6.656005,-2.83E-10,,
,6.658005,-2.87E-10,,
,6.660005,-2.92E-10,,
,6.662005,-2.96E-10,,
,6.664005,-3.01E-10,,
,6.666005,-3.05E-10,,
,6.668005,-3.09E-10,,
,6.670005,-3.14E-10,,
,6.672005,-3.19E-10,,
,6.674005,-3.24E-10,,
,6.676005,-3.30E-10,,
,6.678005,-3.35E-10,,
,6.680005,-3.41E-10,,
,6.682005,-3.46E-10,,
,6.684005,-3.52E-10,,
,6.686005,-3.57E-10,,
,6.688005,-3.63E-10,,
,6.690005,-3.70E-10,,
,6.692005,-3.77E-10,,
,6.694005,-3.84E-10,,
,6.696005,-3.91E-10,,
,6.698005,-3.98E-10,,
,6.700005,-4.05E-10,,
,6.702005,-4.12E-10,,
,6.704005,-4.19E-10,,
,6.706005,-4.26E-10,,
,6.708005,-4.34E-10,,
,6.710005,-4.41E-10,,
,6.712005,-4.50E-10,,
,6.714005,-4.57E-10,,
,6.716005,-4.65E-10,,
,6.718005,-4.73E-10,,
,6.720005,-4.81E-10,,
,6.722005,-4.90E-10,,
,6.724005,-4.99E-10,,
,6.726005,-5.08E-10,,
,6.728005,-5.17E-10,,
,6.730005,-5.26E-10,,
,6.732005,-5.35E-10,,
,6.734005,-5.43E-10,,
,6.736005,-5.52E-10,,
,6.738005,-5.60E-10,,
,6.740005,-5.70E-10,,
,6.742005,-5.79E-10,,
,6.744005,-5.89E-10,,
,6.746005,-5.98E-10,,
,6.748005,-6.07E-10,,
,6.750005,-6.16E-10,,
,6.752005,-6.25E-10,,
,6.754005,-6.35E-10,,
,6.756005,-6.45E-10,,
,6.758005,-6.55E-10,,
,6.760005,-6.65E-10,,
,6.762005,-6.75E-10,,
,6.764005,-6.84E-10,,
,6.766005,-6.93E-10,,
,6.768005,-7.03E-10,,
,6.770005,-7.13E-10,,
,6.772005,-7.23E-10,,
,6.774005,-7.33E-10,,
,6.776005,-7.44E-10,,
,6.778005,-7.55E-10,,
,6.780005,-7.66E-10,,
,6.782005,-7.76E-10,,
,6.784005,-7.87E-10,,
,6.786005,-7.98E-10,,
,6.788005,-8.09E-10,,
,6.790005,-8.21E-10,,
,6.792005,-8.32E-10,,
,6.794005,-8.44E-10,,
,6.796005,-8.56E-10,,
,6.798005,-8.67E-10,,
,6.800005,-8.78E-10,,
,6.802005,-8.88E-10,,
,6.804005,-9.00E-10,,
,6.806005,-9.11E-10,,
,6.808005,-9.23E-10,,
,6.810005,-9.35E-10,,
,6.812005,-9.47E-10,,
,6.814005,-9.58E-10,,
,6.816005,-9.70E-10,,
,6.818005,-9.80E-10,,
,6.820005,-9.91E-10,,
,6.822005,-1.00E-09,,
,6.824005,-1.01E-09,,
,6.826005,-1.02E-09,,
,6.828005,-1.04E-09,,
,6.830005,-1.05E-09,,
,6.832005,-1.06E-09,,
,6.834005,-1.07E-09,,
,6.836005,-1.08E-09,,
,6.838005,-1.09E-09,,
,6.840005,-1.09E-09,,
,6.842005,-1.10E-09,,
,6.844005,-1.11E-09,,
,6.846005,-1.12E-09,,
,6.848005,-1.13E-09,,
,6.850005,-1.14E-09,,
,6.852005,-1.15E-09,,
,6.854005,-1.15E-09,,
,6.856005,-1.16E-09,,
,6.858005,-1.17E-09,,
,6.860005,-1.18E-09,,
,6.862005,-1.18E-09,,
,6.864005,-1.19E-09,,
,6.866005,-1.19E-09,,
,6.868005,-1.20E-09,,
,6.870005,-1.20E-09,,
,6.872005,-1.21E-09,,
,6.874005,-1.21E-09,,
,6.876005,-1.22E-09,,
,6.878005,-1.22E-09,,
,6.880005,-1.23E-09,,
,6.882005,-1.23E-09,,
,6.884005,-1.23E-09,,
,6.886005,-1.23E-09,,
,6.888005,-1.24E-09,,
,6.890005,-1.24E-09,,
,6.892005,-1.24E-09,,
,6.894005,-1.24E-09,,
,6.896005,-1.24E-09,,
,6.898005,-1.25E-09,,
,6.900005,-1.25E-09,,
,6.902005,-1.25E-09,,
,6.904005,-1.25E-09,,
,6.906005,-1.25E-09,,
,6.908005,-1.25E-09,,
,6.910005,-1.25E-09,,
,6.912005,-1.25E-09,,
,6.914005,-1.25E-09,,
,6.916005,-1.25E-09,,
,6.918005,-1.24E-09,,
,6.920005,-1.24E-09,,
,6.922005,-1.24E-09,,
,6.924005,-1.24E-09,,
,6.926005,-1.24E-09,,
,6.928005,-1.24E-09,,
,6.930005,-1.24E-09,,
,6.932005,-1.23E-09,,
,6.934005,-1.23E-09,,
,6.936005,-1.23E-09,,
,6.938005,-1.22E-09,,
,6.940005,-1.22E-09,,
,6.942005,-1.22E-09,,
,6.944005,-1.21E-09,,
,6.946005,-1.21E-09,,
,6.948005,-1.21E-09,,
,6.950005,-1.20E-09,,
,6.952005,-1.20E-09,,
,6.954005,-1.19E-09,,
,6.956005,-1.19E-09,,
,6.958005,-1.18E-09,,
,6.960005,-1.18E-09,,
,6.962005,-1.17E-09,,
,6.964005,-1.17E-09,,
,6.966005,-1.16E-09,,
,6.968005,-1.16E-09,,
,6.970005,-1.15E-09,,
,6.972005,-1.14E-09,,
,6.974005,-1.14E-09,,
,6.976005,-1.13E-09,,
,6.978005,-1.12E-09,,
,6.980005,-1.12E-09,,
,6.982005,-1.11E-09,,
,6.984005,-1.10E-09,,
,6.986005,-1.09E-09,,
,6.988005,-1.09E-09,,
,6.990005,-1.08E-09,,
,6.992005,-1.07E-09,,
,6.994005,-1.06E-09,,
,6.996005,-1.06E-09,,
,6.998005,-1.05E-09,,
,7.000005,-1.04E-09,,
,7.002005,-1.03E-09,,
,7.004005,-1.02E-09,,
,7.006005,-1.01E-09,,
,7.008005,-9.97E-10,,
,7.010005,-9.86E-10,,
,7.012005,-9.75E-10,,
,7.014005,-9.63E-10,,
,7.016005,-9.50E-10,,
,7.018005,-9.38E-10,,
,7.020005,-9.25E-10,,
,7.022005,-9.11E-10,,
,7.024005,-8.98E-10,,
,7.026005,-8.84E-10,,
,7.028005,-8.69E-10,,
,7.030005,-8.53E-10,,
,7.032005,-8.37E-10,,
,7.034005,-8.20E-10,,
,7.036005,-8.01E-10,,
,7.038005,-7.83E-10,,
,7.040005,-7.64E-10,,
,7.042005,-7.45E-10,,
,7.044005,-7.26E-10,,
,7.046005,-7.05E-10,,
,7.048005,-6.83E-10,,
,7.050005,-6.60E-10,,
,7.052005,-6.37E-10,,
,7.054005,-6.12E-10,,
,7.056005,-5.88E-10,,
,7.058005,-5.63E-10,,
,7.060005,-5.36E-10,,
,7.062005,-5.08E-10,,
,7.064005,-4.79E-10,,
,7.066005,-4.48E-10,,
,7.068005,-4.16E-10,,
,7.070005,-3.84E-10,,
,7.072005,-3.50E-10,,
,7.074005,-3.16E-10,,
,7.076005,-2.81E-10,,
,7.078005,-2.44E-10,,
,7.080005,-2.07E-10,,
,7.082005,-1.68E-10,,
,7.084005,-1.27E-10,,
,7.086005,-8.51E-11,,
,7.088005,-4.19E-11,,
,7.090005,2.12E-12,,
,7.092005,4.73E-11,,
,7.094005,9.37E-11,,
,7.096005,1.41E-10,,
,7.098005,1.90E-10,,
,7.100005,2.40E-10,,
,7.102005,2.90E-10,,
,7.104005,3.41E-10,,
,7.106005,3.92E-10,,
,7.108005,4.44E-10,,
,7.110005,4.96E-10,,
,7.112005,5.48E-10,,
,7.114005,6.00E-10,,
,7.116005,6.52E-10,,
,7.118005,7.04E-10,,
,7.120005,7.56E-10,,
,7.122005,8.08E-10,,
,7.124005,8.58E-10,,
,7.126005,9.07E-10,,
,7.128005,9.57E-10,,
,7.130005,1.01E-09,,
,7.132005,1.05E-09,,
,7.134005,1.10E-09,,
,7.136005,1.15E-09,,
,7.138005,1.19E-09,,
,7.140005,1.24E-09,,
,7.142005,1.28E-09,,
,7.144005,1.32E-09,,
,7.146005,1.36E-09,,
,7.148005,1.40E-09,,
,7.150005,1.44E-09,,
,7.152005,1.48E-09,,
,7.154005,1.52E-09,,
,7.156005,1.55E-09,,
,7.158005,1.58E-09,,
,7.160005,1.61E-09,,
,7.162005,1.65E-09,,
,7.164005,1.67E-09,,
,7.166005,1.70E-09,,
,7.168005,1.73E-09,,
,7.170005,1.76E-09,,
,7.172005,1.78E-09,,
,7.174005,1.80E-09,,
,7.176005,1.82E-09,,
,7.178005,1.84E-09,,
,7.180005,1.86E-09,,
,7.182005,1.88E-09,,
,7.184005,1.89E-09,,
,7.186005,1.91E-09,,
,7.188005,1.92E-09,,
,7.190005,1.93E-09,,
,7.192005,1.94E-09,,
,7.194005,1.95E-09,,
,7.196005,1.96E-09,,
,7.198005,1.96E-09,,
,7.200005,1.97E-09,,
,7.202005,1.97E-09,,
,7.204005,1.98E-09,,
,7.206005,1.98E-09,,
,7.208005,1.98E-09,,
,7.210005,1.98E-09,,
,7.212005,1.98E-09,,
,7.214005,1.97E-09,,
,7.216005,1.97E-09,,
,7.218005,1.97E-09,,
,7.220005,1.96E-09,,
,7.222005,1.96E-09,,
,7.224005,1.95E-09,,
,7.226005,1.94E-09,,
,7.228005,1.94E-09,,
,7.230005,1.93E-09,,
,7.232005,1.92E-09,,
,7.234005,1.91E-09,,
,7.236005,1.90E-09,,
,7.238005,1.89E-09,,
,7.240005,1.88E-09,,
,7.242005,1.87E-09,,
,7.244005,1.85E-09,,
,7.246005,1.84E-09,,
,7.248005,1.83E-09,,
,7.250005,1.82E-09,,
,7.252005,1.80E-09,,
,7.254005,1.79E-09,,
,7.256005,1.77E-09,,
,7.258005,1.76E-09,,
,7.260005,1.74E-09,,
,7.262005,1.73E-09,,
,7.264005,1.71E-09,,
,7.266005,1.70E-09,,
,7.268005,1.68E-09,,
,7.270005,1.67E-09,,
,7.272005,1.65E-09,,
,7.274005,1.64E-09,,
,7.276005,1.62E-09,,
,7.278005,1.60E-09,,
,7.280005,1.59E-09,,
,7.282005,1.57E-09,,
,7.284005,1.55E-09,,
,7.286005,1.54E-09,,
,7.288005,1.52E-09,,
,7.290005,1.50E-09,,
,7.292005,1.48E-09,,
,7.294005,1.47E-09,,
,7.296005,1.45E-09,,
,7.298005,1.43E-09,,
,7.300005,1.41E-09,,
,7.302005,1.39E-09,,
,7.304005,1.38E-09,,
,7.306005,1.36E-09,,
,7.308005,1.34E-09,,
,7.310005,1.32E-09,,
,7.312005,1.30E-09,,
,7.314005,1.28E-09,,
,7.316005,1.27E-09,,
,7.318005,1.25E-09,,
,7.320005,1.23E-09,,
,7.322005,1.21E-09,,
,7.324005,1.19E-09,,
,7.326005,1.17E-09,,
,7.328005,1.15E-09,,
,7.330005,1.13E-09,,
,7.332005,1.11E-09,,
,7.334005,1.10E-09,,
,7.336005,1.08E-09,,
,7.338005,1.06E-09,,
,7.340005,1.04E-09,,
,7.342005,1.02E-09,,
,7.344005,1.01E-09,,
,7.346005,9.89E-10,,
,7.348005,9.72E-10,,
,7.350005,9.56E-10,,
,7.352005,9.40E-10,,
,7.354005,9.24E-10,,
,7.356005,9.08E-10,,
,7.358005,8.92E-10,,
,7.360005,8.77E-10,,
,7.362005,8.62E-10,,
,7.364005,8.48E-10,,
,7.366005,8.34E-10,,
,7.368005,8.21E-10,,
,7.370005,8.08E-10,,
,7.372005,7.96E-10,,
,7.374005,7.83E-10,,
,7.376005,7.70E-10,,
,7.378005,7.58E-10,,
,7.380005,7.47E-10,,
,7.382005,7.37E-10,,
,7.384005,7.27E-10,,
,7.386005,7.18E-10,,
,7.388005,7.08E-10,,
,7.390005,6.99E-10,,
,7.392005,6.89E-10,,
,7.394005,6.81E-10,,
,7.396005,6.72E-10,,
,7.398005,6.65E-10,,
,7.400005,6.58E-10,,
,7.402005,6.51E-10,,
,7.404005,6.44E-10,,
,7.406005,6.38E-10,,
,7.408005,6.31E-10,,
,7.410005,6.24E-10,,
,7.412005,6.18E-10,,
,7.414005,6.12E-10,,
,7.416005,6.07E-10,,
,7.418005,6.02E-10,,
,7.420005,5.97E-10,,
,7.422005,5.91E-10,,
,7.424005,5.86E-10,,
,7.426005,5.80E-10,,
,7.428005,5.75E-10,,
,7.430005,5.70E-10,,
,7.432005,5.66E-10,,
,7.434005,5.62E-10,,
,7.436005,5.57E-10,,
,7.438005,5.53E-10,,
,7.440005,5.48E-10,,
,7.442005,5.44E-10,,
,7.444005,5.39E-10,,
,7.446005,5.35E-10,,
,7.448005,5.31E-10,,
,7.450005,5.28E-10,,
,7.452005,5.24E-10,,
,7.454005,5.20E-10,,
,7.456005,5.16E-10,,
,7.458005,5.11E-10,,
,7.460005,5.07E-10,,
,7.462005,5.03E-10,,
,7.464005,4.99E-10,,
,7.466005,4.96E-10,,
,7.468005,4.93E-10,,
,7.470005,4.90E-10,,
,7.472005,4.86E-10,,
,7.474005,4.83E-10,,
,7.476005,4.79E-10,,
,7.478005,4.76E-10,,
,7.480005,4.73E-10,,
,7.482005,4.70E-10,,
,7.484005,4.68E-10,,
,7.486005,4.66E-10,,
,7.488005,4.63E-10,,
,7.490005,4.61E-10,,
,7.492005,4.58E-10,,
,7.494005,4.55E-10,,
,7.496005,4.52E-10,,
,7.498005,4.50E-10,,
,7.500005,4.48E-10,,
,7.502005,4.47E-10,,
,7.504005,4.45E-10,,
,7.506005,4.43E-10,,
,7.508005,4.40E-10,,
,7.510005,4.38E-10,,
,7.512005,4.36E-10,,
,7.514005,4.35E-10,,
,7.516005,4.34E-10,,
,7.518005,4.33E-10,,
,7.520005,4.33E-10,,
,7.522005,4.32E-10,,
,7.524005,4.31E-10,,
,7.526005,4.30E-10,,
,7.528005,4.29E-10,,
,7.530005,4.29E-10,,
,7.532005,4.29E-10,,
,7.534005,4.29E-10,,
,7.536005,4.30E-10,,
,7.538005,4.30E-10,,
,7.540005,4.30E-10,,
,7.542005,4.30E-10,,
,7.544005,4.30E-10,,
,7.546005,4.30E-10,,
,7.548005,4.30E-10,,
,7.550005,4.31E-10,,
,7.552005,4.32E-10,,
,7.554005,4.32E-10,,
,7.556005,4.32E-10,,
,7.558005,4.32E-10,,
,7.560005,4.31E-10,,
,7.562005,4.31E-10,,
,7.564005,4.31E-10,,
,7.566005,4.31E-10,,
,7.568005,4.32E-10,,
,7.570005,4.31E-10,,
,7.572005,4.31E-10,,
,7.574005,4.30E-10,,
,7.576005,4.29E-10,,
,7.578005,4.28E-10,,
,7.580005,4.27E-10,,
,7.582005,4.26E-10,,
,7.584005,4.26E-10,,
,7.586005,4.25E-10,,
,7.588005,4.24E-10,,
,7.590005,4.23E-10,,
,7.592005,4.21E-10,,
,7.594005,4.18E-10,,
,7.596005,4.16E-10,,
,7.598005,4.15E-10,,
,7.600005,4.13E-10,,
,7.602005,4.12E-10,,
,7.604005,4.10E-10,,
,7.606005,4.08E-10,,
,7.608005,4.05E-10,,
,7.610005,4.02E-10,,
,7.612005,3.99E-10,,
,7.614005,3.97E-10,,
,7.616005,3.94E-10,,
,7.618005,3.93E-10,,
,7.620005,3.91E-10,,
,7.622005,3.88E-10,,
,7.624005,3.85E-10,,
,7.626005,3.82E-10,,
,7.628005,3.79E-10,,
,7.630005,3.77E-10,,
,7.632005,3.75E-10,,
,7.634005,3.73E-10,,
,7.636005,3.71E-10,,
,7.638005,3.69E-10,,
,7.640005,3.67E-10,,
,7.642005,3.64E-10,,
,7.644005,3.62E-10,,
,7.646005,3.59E-10,,
,7.648005,3.57E-10,,
,7.650005,3.55E-10,,
,7.652005,3.54E-10,,
,7.654005,3.52E-10,,
,7.656005,3.50E-10,,
,7.658005,3.47E-10,,
,7.660005,3.45E-10,,
,7.662005,3.43E-10,,
,7.664005,3.41E-10,,
,7.666005,3.39E-10,,
,7.668005,3.37E-10,,
,7.670005,3.36E-10,,
,7.672005,3.34E-10,,
,7.674005,3.31E-10,,
,7.676005,3.29E-10,,
,7.678005,3.27E-10,,
,7.680005,3.25E-10,,
,7.682005,3.23E-10,,
,7.684005,3.21E-10,,
,7.686005,3.20E-10,,
,7.688005,3.18E-10,,
,7.690005,3.16E-10,,
,7.692005,3.13E-10,,
,7.694005,3.11E-10,,
,7.696005,3.08E-10,,
,7.698005,3.06E-10,,
,7.700005,3.05E-10,,
,7.702005,3.03E-10,,
,7.704005,3.01E-10,,
,7.706005,2.98E-10,,
,7.708005,2.96E-10,,
,7.710005,2.93E-10,,
,7.712005,2.90E-10,,
,7.714005,2.87E-10,,
,7.716005,2.85E-10,,
,7.718005,2.84E-10,,
,7.720005,2.82E-10,,
,7.722005,2.81E-10,,
,7.724005,2.79E-10,,
,7.726005,2.77E-10,,
,7.728005,2.75E-10,,
,7.730005,2.73E-10,,
,7.732005,2.72E-10,,
,7.734005,2.72E-10,,
,7.736005,2.71E-10,,
,7.738005,2.71E-10,,
,7.740005,2.70E-10,,
,7.742005,2.69E-10,,
,7.744005,2.68E-10,,
,7.746005,2.67E-10,,
,7.748005,2.66E-10,,
,7.750005,2.66E-10,,
,7.752005,2.66E-10,,
,7.754005,2.66E-10,,
,7.756005,2.65E-10,,
,7.758005,2.64E-10,,
,7.760005,2.63E-10,,
,7.762005,2.62E-10,,
,7.764005,2.61E-10,,
,7.766005,2.61E-10,,
,7.768005,2.60E-10,,
,7.770005,2.60E-10,,
,7.772005,2.59E-10,,
,7.774005,2.57E-10,,
,7.776005,2.55E-10,,
,7.778005,2.54E-10,,
,7.780005,2.53E-10,,
,7.782005,2.52E-10,,
,7.784005,2.51E-10,,
,7.786005,2.50E-10,,
,7.788005,2.49E-10,,
,7.790005,2.47E-10,,
,7.792005,2.45E-10,,
,7.794005,2.43E-10,,
,7.796005,2.42E-10,,
,7.798005,2.40E-10,,
,7.800005,2.40E-10,,
,7.802005,2.39E-10,,
,7.804005,2.38E-10,,
,7.806005,2.36E-10,,
,7.808005,2.33E-10,,
,7.810005,2.31E-10,,
,7.812005,2.29E-10,,
,7.814005,2.28E-10,,
,7.816005,2.27E-10,,
,7.818005,2.26E-10,,
,7.820005,2.24E-10,,
,7.822005,2.23E-10,,
,7.824005,2.21E-10,,
,7.826005,2.19E-10,,
,7.828005,2.17E-10,,
,7.830005,2.15E-10,,
,7.832005,2.14E-10,,
,7.834005,2.12E-10,,
,7.836005,2.11E-10,,
,7.838005,2.10E-10,,
,7.840005,2.08E-10,,
,7.842005,2.05E-10,,
,7.844005,2.03E-10,,
,7.846005,2.01E-10,,
,7.848005,1.99E-10,,
,7.850005,1.98E-10,,
,7.852005,1.97E-10,,
,7.854005,1.95E-10,,
,7.856005,1.94E-10,,
,7.858005,1.91E-10,,
,7.860005,1.89E-10,,
,7.862005,1.87E-10,,
,7.864005,1.85E-10,,
,7.866005,1.84E-10,,
,7.868005,1.83E-10,,
,7.870005,1.81E-10,,
,7.872005,1.80E-10,,
,7.874005,1.78E-10,,
,7.876005,1.76E-10,,
,7.878005,1.73E-10,,
,7.880005,1.72E-10,,
,7.882005,1.70E-10,,
,7.884005,1.69E-10,,
,7.886005,1.68E-10,,
,7.888005,1.67E-10,,
,7.890005,1.65E-10,,
,7.892005,1.63E-10,,
,7.894005,1.61E-10,,
,7.896005,1.59E-10,,
,7.898005,1.57E-10,,
,7.900005,1.56E-10,,
,7.902005,1.55E-10,,
,7.904005,1.54E-10,,
,7.906005,1.53E-10,,
,7.908005,1.51E-10,,
,7.910005,1.49E-10,,
,7.912005,1.47E-10,,
,7.914005,1.46E-10,,
,7.916005,1.45E-10,,
,7.918005,1.45E-10,,
,7.920005,1.44E-10,,
,7.922005,1.43E-10,,
,7.924005,1.42E-10,,
,7.926005,1.40E-10,,
,7.928005,1.39E-10,,
,7.930005,1.39E-10,,
,7.932005,1.38E-10,,
,7.934005,1.38E-10,,
,7.936005,1.38E-10,,
,7.938005,1.38E-10,,
,7.940005,1.38E-10,,
,7.942005,1.37E-10,,
,7.944005,1.36E-10,,
,7.946005,1.36E-10,,
,7.948005,1.36E-10,,
,7.950005,1.37E-10,,
,7.952005,1.37E-10,,
,7.954005,1.38E-10,,
,7.956005,1.38E-10,,
,7.958005,1.37E-10,,
,7.960005,1.37E-10,,
,7.962005,1.36E-10,,
,7.964005,1.37E-10,,
,7.966005,1.37E-10,,
,7.968005,1.38E-10,,
,7.970005,1.38E-10,,
,7.972005,1.38E-10,,
,7.974005,1.37E-10,,
,7.976005,1.37E-10,,
,7.978005,1.36E-10,,
,7.980005,1.36E-10,,
,7.982005,1.36E-10,,
,7.984005,1.36E-10,,
,7.986005,1.36E-10,,
,7.988005,1.36E-10,,
,7.990005,1.35E-10,,
,7.992005,1.34E-10,,
,7.994005,1.32E-10,,
,7.996005,1.31E-10,,
,7.998005,1.31E-10,,
,8.000005,1.30E-10,,
,8.002005,1.30E-10,,
,8.004005,1.29E-10,,
,8.006005,1.28E-10,,
,8.008005,1.27E-10,,
,8.010005,1.25E-10,,
,8.012005,1.23E-10,,
,8.014005,1.22E-10,,
,8.016005,1.20E-10,,
,8.018005,1.19E-10,,
,8.020005,1.18E-10,,
,8.022005,1.16E-10,,
,8.024005,1.14E-10,,
,8.026005,1.12E-10,,
,8.028005,1.09E-10,,
,8.030005,1.07E-10,,
,8.032005,1.06E-10,,
,8.034005,1.05E-10,,
,8.036005,1.03E-10,,
,8.038005,1.01E-10,,
,8.040005,9.92E-11,,
,8.042005,9.65E-11,,
,8.044005,9.38E-11,,
,8.046005,9.13E-11,,
,8.048005,8.93E-11,,
,8.050005,8.75E-11,,
,8.052005,8.56E-11,,
,8.054005,8.40E-11,,
,8.056005,8.18E-11,,
,8.058005,7.92E-11,,
,8.060005,7.61E-11,,
,8.062005,7.33E-11,,
,8.064005,7.09E-11,,
,8.066005,6.91E-11,,
,8.068005,6.75E-11,,
,8.070005,6.57E-11,,
,8.072005,6.35E-11,,
,8.074005,6.06E-11,,
,8.076005,5.78E-11,,
,8.078005,5.49E-11,,
,8.080005,5.27E-11,,
,8.082005,5.08E-11,,
,8.084005,4.90E-11,,
,8.086005,4.71E-11,,
,8.088005,4.47E-11,,
,8.090005,4.20E-11,,
,8.092005,3.92E-11,,
,8.094005,3.63E-11,,
,8.096005,3.36E-11,,
,8.098005,3.13E-11,,
,8.100005,2.94E-11,,
,8.102005,2.78E-11,,
,8.104005,2.58E-11,,
,8.106005,2.31E-11,,
,8.108005,2.03E-11,,
,8.110005,1.72E-11,,
,8.112005,1.47E-11,,
,8.114005,1.22E-11,,
,8.116005,1.04E-11,,
,8.118005,8.67E-12,,
,8.120005,6.74E-12,,
,8.122005,4.59E-12,,
,8.124005,1.91E-12,,
,8.126005,-7.77E-13,,
,8.128005,-3.35E-12,,
,8.130005,-5.50E-12,,
,8.132005,-7.22E-12,,
,8.134005,-8.83E-12,,
,8.136005,-1.03E-11,,
,8.138005,-1.19E-11,,
,8.140005,-1.39E-11,,
,8.142005,-1.59E-11,,
,8.144005,-1.82E-11,,
,8.146005,-2.00E-11,,
,8.148005,-2.11E-11,,
,8.150005,-2.17E-11,,
,8.152005,-2.21E-11,,
,8.154005,-2.29E-11,,
,8.156005,-2.40E-11,,
,8.158005,-2.54E-11,,
,8.160005,-2.69E-11,,
,8.162005,-2.76E-11,,
,8.164005,-2.79E-11,,
,8.166005,-2.77E-11,,
,8.168005,-2.74E-11,,
,8.170005,-2.72E-11,,
,8.172005,-2.71E-11,,
,8.174005,-2.72E-11,,
,8.176005,-2.72E-11,,
,8.178005,-2.72E-11,,
,8.180005,-2.66E-11,,
,8.182005,-2.58E-11,,
,8.184005,-2.41E-11,,
,8.186005,-2.27E-11,,
,8.188005,-2.11E-11,,
,8.190005,-2.00E-11,,
,8.192005,-1.89E-11,,
,8.194005,-1.80E-11,,
,8.196005,-1.66E-11,,
,8.198005,-1.47E-11,,
,8.200005,-1.24E-11,,
,8.202005,-1.01E-11,,
,8.204005,-7.86E-12,,
,8.206005,-5.82E-12,,
,8.208005,-4.10E-12,,
,8.210005,-2.17E-12,,
,8.212005,-2.53E-14,,
,8.214005,2.55E-12,,
,8.216005,5.34E-12,,
,8.218005,8.24E-12,,
,8.220005,1.12E-11,,
,8.222005,1.39E-11,,
,8.224005,1.63E-11,,
,8.226005,1.85E-11,,
,8.228005,2.10E-11,,
,8.230005,2.37E-11,,
,8.232005,2.69E-11,,
,8.234005,3.04E-11,,
,8.236005,3.39E-11,,
,8.238005,3.69E-11,,
,8.240005,3.97E-11,,
,8.242005,4.23E-11,,
,8.244005,4.51E-11,,
,8.246005,4.80E-11,,
,8.248005,5.12E-11,,
,8.250005,5.46E-11,,
,8.252005,5.81E-11,,
,8.254005,6.14E-11,,
,8.256005,6.44E-11,,
,8.258005,6.73E-11,,
,8.260005,6.99E-11,,
,8.262005,7.28E-11,,
,8.264005,7.60E-11,,
,8.266005,7.96E-11,,
,8.268005,8.32E-11,,
,8.270005,8.67E-11,,
,8.272005,8.97E-11,,
,8.274005,9.25E-11,,
,8.276005,9.49E-11,,
,8.278005,9.76E-11,,
,8.280005,1.00E-10,,
,8.282005,1.04E-10,,
,8.284005,1.07E-10,,
,8.286005,1.10E-10,,
,8.288005,1.13E-10,,
,8.290005,1.16E-10,,
,8.292005,1.18E-10,,
,8.294005,1.20E-10,,
,8.296005,1.22E-10,,
,8.298005,1.25E-10,,
,8.300005,1.28E-10,,
,8.302005,1.31E-10,,
,8.304005,1.34E-10,,
,8.306005,1.36E-10,,
,8.308005,1.38E-10,,
,8.310005,1.40E-10,,
,8.312005,1.42E-10,,
,8.314005,1.45E-10,,
,8.316005,1.47E-10,,
,8.318005,1.50E-10,,
,8.320005,1.53E-10,,
,8.322005,1.55E-10,,
,8.324005,1.56E-10,,
,8.326005,1.58E-10,,
,8.328005,1.60E-10,,
,8.330005,1.62E-10,,
,8.332005,1.64E-10,,
,8.334005,1.67E-10,,
,8.336005,1.69E-10,,
,8.338005,1.71E-10,,
,8.340005,1.73E-10,,
,8.342005,1.74E-10,,
,8.344005,1.75E-10,,
,8.346005,1.77E-10,,
,8.348005,1.79E-10,,
,8.350005,1.81E-10,,
,8.352005,1.84E-10,,
,8.354005,1.85E-10,,
,8.356005,1.87E-10,,
,8.358005,1.88E-10,,
,8.360005,1.89E-10,,
,8.362005,1.91E-10,,
,8.364005,1.93E-10,,
,8.366005,1.95E-10,,
,8.368005,1.97E-10,,
,8.370005,1.99E-10,,
,8.372005,2.01E-10,,
,8.374005,2.02E-10,,
,8.376005,2.03E-10,,
,8.378005,2.04E-10,,
,8.380005,2.06E-10,,
,8.382005,2.08E-10,,
,8.384005,2.10E-10,,
,8.386005,2.12E-10,,
,8.388005,2.14E-10,,
,8.390005,2.15E-10,,
,8.392005,2.16E-10,,
,8.394005,2.17E-10,,
,8.396005,2.18E-10,,
,8.398005,2.20E-10,,
,8.400005,2.22E-10,,
,8.402005,2.23E-10,,
,8.404005,2.25E-10,,
,8.406005,2.26E-10,,
,8.408005,2.27E-10,,
,8.410005,2.28E-10,,
,8.412005,2.29E-10,,
,8.414005,2.30E-10,,
,8.416005,2.32E-10,,
,8.418005,2.34E-10,,
,8.420005,2.35E-10,,
,8.422005,2.36E-10,,
,8.424005,2.37E-10,,
,8.426005,2.38E-10,,
,8.428005,2.38E-10,,
,8.430005,2.39E-10,,
,8.432005,2.40E-10,,
,8.434005,2.41E-10,,
,8.436005,2.42E-10,,
,8.438005,2.43E-10,,
,8.440005,2.44E-10,,
,8.442005,2.44E-10,,
,8.444005,2.44E-10,,
,8.446005,2.44E-10,,
,8.448005,2.44E-10,,
,8.450005,2.45E-10,,
,8.452005,2.46E-10,,
,8.454005,2.47E-10,,
,8.456005,2.47E-10,,
,8.458005,2.47E-10,,
,8.460005,2.46E-10,,
,8.462005,2.46E-10,,
,8.464005,2.46E-10,,
,8.466005,2.46E-10,,
,8.468005,2.47E-10,,
,8.470005,2.47E-10,,
,8.472005,2.47E-10,,
,8.474005,2.47E-10,,
,8.476005,2.46E-10,,
,8.478005,2.45E-10,,
,8.480005,2.45E-10,,
,8.482005,2.45E-10,,
,8.484005,2.45E-10,,
,8.486005,2.45E-10,,
,8.488005,2.44E-10,,
,8.490005,2.43E-10,,
,8.492005,2.42E-10,,
,8.494005,2.41E-10,,
,8.496005,2.40E-10,,
,8.498005,2.39E-10,,
,8.500005,2.39E-10,,
,8.502005,2.38E-10,,
,8.504005,2.38E-10,,
,8.506005,2.37E-10,,
,8.508005,2.36E-10,,
,8.510005,2.34E-10,,
,8.512005,2.33E-10,,
,8.514005,2.32E-10,,
,8.516005,2.31E-10,,
,8.518005,2.30E-10,,
,8.520005,2.30E-10,,
,8.522005,2.29E-10,,
,8.524005,2.27E-10,,
,8.526005,2.25E-10,,
,8.528005,2.23E-10,,
,8.530005,2.22E-10,,
,8.532005,2.21E-10,,
,8.534005,2.19E-10,,
,8.536005,2.18E-10,,
,8.538005,2.17E-10,,
,8.540005,2.16E-10,,
,8.542005,2.14E-10,,
,8.544005,2.13E-10,,
,8.546005,2.11E-10,,
,8.548005,2.09E-10,,
,8.550005,2.08E-10,,
,8.552005,2.07E-10,,
,8.554005,2.06E-10,,
,8.556005,2.05E-10,,
,8.558005,2.03E-10,,
,8.560005,2.01E-10,,
,8.562005,1.99E-10,,
,8.564005,1.97E-10,,
,8.566005,1.96E-10,,
,8.568005,1.96E-10,,
,8.570005,1.95E-10,,
,8.572005,1.93E-10,,
,8.574005,1.92E-10,,
,8.576005,1.90E-10,,
,8.578005,1.88E-10,,
,8.580005,1.87E-10,,
,8.582005,1.85E-10,,
,8.584005,1.85E-10,,
,8.586005,1.84E-10,,
,8.588005,1.84E-10,,
,8.590005,1.82E-10,,
,8.592005,1.80E-10,,
,8.594005,1.79E-10,,
,8.596005,1.77E-10,,
,8.598005,1.77E-10,,
,8.600005,1.76E-10,,
,8.602005,1.75E-10,,
,8.604005,1.75E-10,,
,8.606005,1.74E-10,,
,8.608005,1.73E-10,,
,8.610005,1.71E-10,,
,8.612005,1.70E-10,,
,8.614005,1.69E-10,,
,8.616005,1.68E-10,,
,8.618005,1.68E-10,,
,8.620005,1.67E-10,,
,8.622005,1.67E-10,,
,8.624005,1.66E-10,,
,8.626005,1.64E-10,,
,8.628005,1.63E-10,,
,8.630005,1.61E-10,,
,8.632005,1.61E-10,,
,8.634005,1.60E-10,,
,8.636005,1.60E-10,,
,8.638005,1.59E-10,,
,8.640005,1.58E-10,,
,8.642005,1.57E-10,,
,8.644005,1.55E-10,,
,8.646005,1.54E-10,,
,8.648005,1.53E-10,,
,8.650005,1.53E-10,,
,8.652005,1.52E-10,,
,8.654005,1.52E-10,,
,8.656005,1.51E-10,,
,8.658005,1.49E-10,,
,8.660005,1.48E-10,,
,8.662005,1.47E-10,,
,8.664005,1.46E-10,,
,8.666005,1.45E-10,,
,8.668005,1.45E-10,,
,8.670005,1.44E-10,,
,8.672005,1.44E-10,,
,8.674005,1.43E-10,,
,8.676005,1.41E-10,,
,8.678005,1.40E-10,,
,8.680005,1.39E-10,,
,8.682005,1.38E-10,,
,8.684005,1.38E-10,,
,8.686005,1.38E-10,,
,8.688005,1.37E-10,,
,8.690005,1.37E-10,,
,8.692005,1.35E-10,,
,8.694005,1.34E-10,,
,8.696005,1.33E-10,,
,8.698005,1.33E-10,,
,8.700005,1.33E-10,,
,8.702005,1.33E-10,,
,8.704005,1.33E-10,,
,8.706005,1.32E-10,,
,8.708005,1.31E-10,,
,8.710005,1.30E-10,,
,8.712005,1.29E-10,,
,8.714005,1.29E-10,,
,8.716005,1.29E-10,,
,8.718005,1.29E-10,,
,8.720005,1.29E-10,,
,8.722005,1.29E-10,,
,8.724005,1.29E-10,,
,8.726005,1.28E-10,,
,8.728005,1.27E-10,,
,8.730005,1.27E-10,,
,8.732005,1.27E-10,,
,8.734005,1.27E-10,,
,8.736005,1.27E-10,,
,8.738005,1.27E-10,,
,8.740005,1.27E-10,,
,8.742005,1.26E-10,,
,8.744005,1.26E-10,,
,8.746005,1.25E-10,,
,8.748005,1.25E-10,,
,8.750005,1.26E-10,,
,8.752005,1.26E-10,,
,8.754005,1.26E-10,,
,8.756005,1.26E-10,,
,8.758005,1.26E-10,,
,8.760005,1.25E-10,,
,8.762005,1.25E-10,,
,8.764005,1.25E-10,,
,8.766005,1.25E-10,,
,8.768005,1.25E-10,,
,8.770005,1.25E-10,,
,8.772005,1.26E-10,,
,8.774005,1.25E-10,,
,8.776005,1.25E-10,,
,8.778005,1.24E-10,,
,8.780005,1.23E-10,,
,8.782005,1.23E-10,,
,8.784005,1.24E-10,,
,8.786005,1.24E-10,,
,8.788005,1.24E-10,,
,8.790005,1.24E-10,,
,8.792005,1.23E-10,,
,8.794005,1.23E-10,,
,8.796005,1.22E-10,,
,8.798005,1.22E-10,,
,8.800005,1.22E-10,,
,8.802005,1.22E-10,,
,8.804005,1.22E-10,,
,8.806005,1.22E-10,,
,8.808005,1.21E-10,,
,8.810005,1.20E-10,,
,8.812005,1.19E-10,,
,8.814005,1.19E-10,,
,8.816005,1.19E-10,,
,8.818005,1.19E-10,,
,8.820005,1.19E-10,,
,8.822005,1.19E-10,,
,8.824005,1.18E-10,,
,8.826005,1.18E-10,,
,8.828005,1.17E-10,,
,8.830005,1.16E-10,,
,8.832005,1.16E-10,,
,8.834005,1.16E-10,,
,8.836005,1.16E-10,,
,8.838005,1.16E-10,,
,8.840005,1.16E-10,,
,8.842005,1.15E-10,,
,8.844005,1.14E-10,,
,8.846005,1.13E-10,,
,8.848005,1.12E-10,,
,8.850005,1.12E-10,,
,8.852005,1.12E-10,,
,8.854005,1.13E-10,,
,8.856005,1.12E-10,,
,8.858005,1.11E-10,,
,8.860005,1.10E-10,,
,8.862005,1.09E-10,,
,8.864005,1.09E-10,,
,8.866005,1.08E-10,,
,8.868005,1.09E-10,,
,8.870005,1.08E-10,,
,8.872005,1.08E-10,,
,8.874005,1.07E-10,,
,8.876005,1.06E-10,,
,8.878005,1.05E-10,,
,8.880005,1.04E-10,,
,8.882005,1.03E-10,,
,8.884005,1.03E-10,,
,8.886005,1.03E-10,,
,8.888005,1.03E-10,,
,8.890005,1.02E-10,,
,8.892005,1.01E-10,,
,8.894005,1.00E-10,,
,8.896005,9.91E-11,,
,8.898005,9.86E-11,,
,8.900005,9.84E-11,,
,8.902005,9.85E-11,,
,8.904005,9.81E-11,,
,8.906005,9.72E-11,,
,8.908005,9.62E-11,,
,8.910005,9.49E-11,,
,8.912005,9.40E-11,,
,8.914005,9.33E-11,,
,8.916005,9.29E-11,,
,8.918005,9.25E-11,,
,8.920005,9.25E-11,,
,8.922005,9.23E-11,,
,8.924005,9.17E-11,,
,8.926005,9.02E-11,,
,8.928005,8.88E-11,,
,8.930005,8.78E-11,,
,8.932005,8.76E-11,,
,8.934005,8.77E-11,,
,8.936005,8.76E-11,,
,8.938005,8.73E-11,,
,8.940005,8.63E-11,,
,8.942005,8.54E-11,,
,8.944005,8.45E-11,,
,8.946005,8.35E-11,,
,8.948005,8.26E-11,,
,8.950005,8.24E-11,,
,8.952005,8.26E-11,,
,8.954005,8.27E-11,,
,8.956005,8.21E-11,,
,8.958005,8.10E-11,,
,8.960005,8.00E-11,,
,8.962005,7.90E-11,,
,8.964005,7.85E-11,,
,8.966005,7.81E-11,,
,8.968005,7.82E-11,,
,8.970005,7.83E-11,,
,8.972005,7.83E-11,,
,8.974005,7.77E-11,,
,8.976005,7.68E-11,,
,8.978005,7.59E-11,,
,8.980005,7.53E-11,,
,8.982005,7.52E-11,,
,8.984005,7.54E-11,,
,8.986005,7.60E-11,,
,8.988005,7.59E-11,,
,8.990005,7.56E-11,,
,8.992005,7.48E-11,,
,8.994005,7.44E-11,,
,8.996005,7.44E-11,,
,8.998005,7.47E-11,,
,9.000005,7.56E-11,,
,9.002005,7.61E-11,,
,9.004005,7.66E-11,,
,9.006005,7.65E-11,,
,9.008005,7.65E-11,,
,9.010005,7.62E-11,,
,9.012005,7.64E-11,,
,9.014005,7.66E-11,,
,9.016005,7.74E-11,,
,9.018005,7.83E-11,,
,9.020005,7.95E-11,,
,9.022005,8.04E-11,,
,9.024005,8.07E-11,,
,9.026005,8.08E-11,,
,9.028005,8.10E-11,,
,9.030005,8.17E-11,,
,9.032005,8.24E-11,,
,9.034005,8.37E-11,,
,9.036005,8.49E-11,,
,9.038005,8.64E-11,,
,9.040005,8.70E-11,,
,9.042005,8.76E-11,,
,9.044005,8.76E-11,,
,9.046005,8.82E-11,,
,9.048005,8.89E-11,,
,9.050005,9.04E-11,,
,9.052005,9.17E-11,,
,9.054005,9.33E-11,,
,9.056005,9.41E-11,,
,9.058005,9.48E-11,,
,9.060005,9.53E-11,,
,9.062005,9.58E-11,,
,9.064005,9.68E-11,,
,9.066005,9.78E-11,,
,9.068005,9.92E-11,,
,9.070005,1.00E-10,,
,9.072005,1.02E-10,,
,9.074005,1.02E-10,,
,9.076005,1.02E-10,,
,9.078005,1.03E-10,,
,9.080005,1.04E-10,,
,9.082005,1.05E-10,,
,9.084005,1.06E-10,,
,9.086005,1.07E-10,,
,9.088005,1.08E-10,,
,9.090005,1.08E-10,,
,9.092005,1.09E-10,,
,9.094005,1.09E-10,,
,9.096005,1.09E-10,,
,9.098005,1.10E-10,,
,9.100005,1.10E-10,,
,9.102005,1.11E-10,,
,9.104005,1.12E-10,,
,9.106005,1.13E-10,,
,9.108005,1.13E-10,,
,9.110005,1.12E-10,,
,9.112005,1.12E-10,,
,9.114005,1.12E-10,,
,9.116005,1.13E-10,,
,9.118005,1.14E-10,,
,9.120005,1.14E-10,,
,9.122005,1.15E-10,,
,9.124005,1.15E-10,,
,9.126005,1.14E-10,,
,9.128005,1.14E-10,,
,9.130005,1.14E-10,,
,9.132005,1.14E-10,,
,9.134005,1.14E-10,,
,9.136005,1.15E-10,,
,9.138005,1.15E-10,,
,9.140005,1.15E-10,,
,9.142005,1.14E-10,,
,9.144005,1.14E-10,,
,9.146005,1.13E-10,,
,9.148005,1.13E-10,,
,9.150005,1.14E-10,,
,9.152005,1.14E-10,,
,9.154005,1.15E-10,,
,9.156005,1.15E-10,,
,9.158005,1.14E-10,,
,9.160005,1.13E-10,,
,9.162005,1.13E-10,,
,9.164005,1.13E-10,,
,9.166005,1.12E-10,,
,9.168005,1.13E-10,,
,9.170005,1.13E-10,,
,9.172005,1.13E-10,,
,9.174005,1.13E-10,,
,9.176005,1.12E-10,,
,9.178005,1.11E-10,,
,9.180005,1.11E-10,,
,9.182005,1.11E-10,,
,9.184005,1.11E-10,,
,9.186005,1.12E-10,,
,9.188005,1.12E-10,,
,9.190005,1.12E-10,,
,9.192005,1.11E-10,,
,9.194005,1.10E-10,,
,9.196005,1.09E-10,,
,9.198005,1.09E-10,,
,9.200005,1.09E-10,,
,9.202005,1.09E-10,,
,9.204005,1.09E-10,,
,9.206005,1.10E-10,,
,9.208005,1.09E-10,,
,9.210005,1.08E-10,,
,9.212005,1.07E-10,,
,9.214005,1.07E-10,,
,9.216005,1.07E-10,,
,9.218005,1.07E-10,,
,9.220005,1.07E-10,,
,9.222005,1.07E-10,,
,9.224005,1.06E-10,,
,9.226005,1.06E-10,,
,9.228005,1.05E-10,,
,9.230005,1.05E-10,,
,9.232005,1.05E-10,,
,9.234005,1.05E-10,,
,9.236005,1.05E-10,,
,9.238005,1.05E-10,,
,9.240005,1.04E-10,,
,9.242005,1.04E-10,,
,9.244005,1.03E-10,,
,9.246005,1.02E-10,,
,9.248005,1.02E-10,,
,9.250005,1.02E-10,,
,9.252005,1.03E-10,,
,9.254005,1.03E-10,,
,9.256005,1.02E-10,,
,9.258005,1.01E-10,,
,9.260005,1.01E-10,,
,9.262005,9.97E-11,,
,9.264005,9.94E-11,,
,9.266005,9.97E-11,,
,9.268005,9.98E-11,,
,9.270005,1.00E-10,,
,9.272005,9.97E-11,,
,9.274005,9.92E-11,,
,9.276005,9.85E-11,,
,9.278005,9.78E-11,,
,9.280005,9.77E-11,,
,9.282005,9.73E-11,,
,9.284005,9.71E-11,,
,9.286005,9.73E-11,,
,9.288005,9.73E-11,,
,9.290005,9.72E-11,,
,9.292005,9.62E-11,,
,9.294005,9.52E-11,,
,9.296005,9.43E-11,,
,9.298005,9.42E-11,,
,9.300005,9.43E-11,,
,9.302005,9.47E-11,,
,9.304005,9.47E-11,,
,9.306005,9.43E-11,,
,9.308005,9.35E-11,,
,9.310005,9.25E-11,,
,9.312005,9.19E-11,,
,9.314005,9.18E-11,,
,9.316005,9.21E-11,,
,9.318005,9.24E-11,,
,9.320005,9.26E-11,,
,9.322005,9.23E-11,,
,9.324005,9.15E-11,,
,9.326005,9.07E-11,,
,9.328005,9.00E-11,,
,9.330005,8.99E-11,,
,9.332005,8.99E-11,,
,9.334005,9.03E-11,,
,9.336005,9.05E-11,,
,9.338005,9.08E-11,,
,9.340005,9.07E-11,,
,9.342005,9.03E-11,,
,9.344005,8.95E-11,,
,9.346005,8.90E-11,,
,9.348005,8.88E-11,,
,9.350005,8.91E-11,,
,9.352005,8.97E-11,,
,9.354005,9.02E-11,,
,9.356005,9.03E-11,,
,9.358005,8.99E-11,,
,9.360005,8.95E-11,,
,9.362005,8.90E-11,,
,9.364005,8.89E-11,,
,9.366005,8.94E-11,,
,9.368005,9.02E-11,,
,9.370005,9.07E-11,,
,9.372005,9.09E-11,,
,9.374005,9.09E-11,,
,9.376005,9.04E-11,,
,9.378005,8.99E-11,,
,9.380005,8.96E-11,,
,9.382005,9.02E-11,,
,9.384005,9.08E-11,,
,9.386005,9.17E-11,,
,9.388005,9.19E-11,,
,9.390005,9.19E-11,,
,9.392005,9.15E-11,,
,9.394005,9.12E-11,,
,9.396005,9.11E-11,,
,9.398005,9.12E-11,,
,9.400005,9.19E-11,,
,9.402005,9.26E-11,,
,9.404005,9.32E-11,,
,9.406005,9.35E-11,,
,9.408005,9.33E-11,,
,9.410005,9.31E-11,,
,9.412005,9.26E-11,,
,9.414005,9.26E-11,,
,9.416005,9.29E-11,,
,9.418005,9.36E-11,,
,9.420005,9.40E-11,,
,9.422005,9.43E-11,,
,9.424005,9.44E-11,,
,9.426005,9.42E-11,,
,9.428005,9.39E-11,,
,9.430005,9.37E-11,,
,9.432005,9.39E-11,,
,9.434005,9.46E-11,,
,9.436005,9.50E-11,,
,9.438005,9.51E-11,,
,9.440005,9.49E-11,,
,9.442005,9.46E-11,,
,9.444005,9.42E-11,,
,9.446005,9.40E-11,,
,9.448005,9.40E-11,,
,9.450005,9.46E-11,,
,9.452005,9.49E-11,,
,9.454005,9.52E-11,,
,9.456005,9.52E-11,,
,9.458005,9.49E-11,,
,9.460005,9.42E-11,,
,9.462005,9.35E-11,,
,9.464005,9.33E-11,,
,9.466005,9.34E-11,,
,9.468005,9.37E-11,,
,9.470005,9.40E-11,,
,9.472005,9.41E-11,,
,9.474005,9.40E-11,,
,9.476005,9.35E-11,,
,9.478005,9.28E-11,,
,9.480005,9.24E-11,,
,9.482005,9.22E-11,,
,9.484005,9.24E-11,,
,9.486005,9.27E-11,,
,9.488005,9.32E-11,,
,9.490005,9.33E-11,,
,9.492005,9.29E-11,,
,9.494005,9.23E-11,,
,9.496005,9.17E-11,,
,9.498005,9.12E-11,,
,9.500005,9.12E-11,,
,9.502005,9.17E-11,,
,9.504005,9.20E-11,,
,9.506005,9.20E-11,,
,9.508005,9.14E-11,,
,9.510005,9.09E-11,,
,9.512005,9.06E-11,,
,9.514005,9.05E-11,,
,9.516005,9.09E-11,,
,9.518005,9.12E-11,,
,9.520005,9.18E-11,,
,9.522005,9.18E-11,,
,9.524005,9.15E-11,,
,9.526005,9.09E-11,,
,9.528005,9.04E-11,,
,9.530005,9.02E-11,,
,9.532005,9.04E-11,,
,9.534005,9.08E-11,,
,9.536005,9.11E-11,,
,9.538005,9.12E-11,,
,9.540005,9.10E-11,,
,9.542005,9.06E-11,,
,9.544005,9.00E-11,,
,9.546005,8.97E-11,,
,9.548005,8.96E-11,,
,9.550005,8.99E-11,,
,9.552005,9.03E-11,,
,9.554005,9.07E-11,,
,9.556005,9.07E-11,,
,9.558005,9.03E-11,,
,9.560005,8.96E-11,,
,9.562005,8.90E-11,,
,9.564005,8.88E-11,,
,9.566005,8.89E-11,,
,9.568005,8.94E-11,,
,9.570005,8.98E-11,,
,9.572005,8.99E-11,,
,9.574005,8.95E-11,,
,9.576005,8.88E-11,,
,9.578005,8.81E-11,,
,9.580005,8.76E-11,,
,9.582005,8.76E-11,,
,9.584005,8.78E-11,,
,9.586005,8.82E-11,,
,9.588005,8.84E-11,,
,9.590005,8.81E-11,,
,9.592005,8.77E-11,,
,9.594005,8.69E-11,,
,9.596005,8.65E-11,,
,9.598005,8.63E-11,,
,9.600005,8.65E-11,,
,9.602005,8.69E-11,,
,9.604005,8.69E-11,,
,9.606005,8.67E-11,,
,9.608005,8.60E-11,,
,9.610005,8.53E-11,,
,9.612005,8.48E-11,,
,9.614005,8.45E-11,,
,9.616005,8.45E-11,,
,9.618005,8.47E-11,,
,9.620005,8.49E-11,,
,9.622005,8.49E-11,,
,9.624005,8.42E-11,,
,9.626005,8.34E-11,,
,9.628005,8.26E-11,,
,9.630005,8.21E-11,,
,9.632005,8.21E-11,,
,9.634005,8.22E-11,,
,9.636005,8.25E-11,,
,9.638005,8.24E-11,,
,9.640005,8.20E-11,,
,9.642005,8.10E-11,,
,9.644005,7.98E-11,,
,9.646005,7.89E-11,,
,9.648005,7.86E-11,,
,9.650005,7.87E-11,,
,9.652005,7.90E-11,,
,9.654005,7.91E-11,,
,9.656005,7.87E-11,,
,9.658005,7.74E-11,,
,9.660005,7.61E-11,,
,9.662005,7.52E-11,,
,9.664005,7.50E-11,,
,9.666005,7.49E-11,,
,9.668005,7.50E-11,,
,9.670005,7.52E-11,,
,9.672005,7.50E-11,,
,9.674005,7.44E-11,,
,9.676005,7.31E-11,,
,9.678005,7.21E-11,,
,9.680005,7.15E-11,,
,9.682005,7.14E-11,,
,9.684005,7.14E-11,,
,9.686005,7.16E-11,,
,9.688005,7.15E-11,,
,9.690005,7.08E-11,,
,9.692005,6.98E-11,,
,9.694005,6.87E-11,,
,9.696005,6.79E-11,,
,9.698005,6.77E-11,,
,9.700005,6.78E-11,,
,9.702005,6.80E-11,,
,9.704005,6.79E-11,,
,9.706005,6.76E-11,,
,9.708005,6.71E-11,,
,9.710005,6.63E-11,,
,9.712005,6.56E-11,,
,9.714005,6.50E-11,,
,9.716005,6.48E-11,,
,9.718005,6.51E-11,,
,9.720005,6.56E-11,,
,9.722005,6.57E-11,,
,9.724005,6.52E-11,,
,9.726005,6.44E-11,,
,9.728005,6.36E-11,,
,9.730005,6.30E-11,,
,9.732005,6.32E-11,,
,9.734005,6.33E-11,,
,9.736005,6.39E-11,,
,9.738005,6.39E-11,,
,9.740005,6.37E-11,,
,9.742005,6.31E-11,,
,9.744005,6.21E-11,,
,9.746005,6.17E-11,,
,9.748005,6.14E-11,,
,9.750005,6.19E-11,,
,9.752005,6.23E-11,,
,9.754005,6.28E-11,,
,9.756005,6.27E-11,,
,9.758005,6.21E-11,,
,9.760005,6.14E-11,,
,9.762005,6.10E-11,,
,9.764005,6.10E-11,,
,9.766005,6.15E-11,,
,9.768005,6.19E-11,,
,9.770005,6.22E-11,,
,9.772005,6.21E-11,,
,9.774005,6.19E-11,,
,9.776005,6.12E-11,,
,9.778005,6.07E-11,,
,9.780005,6.05E-11,,
,9.782005,6.11E-11,,
,9.784005,6.14E-11,,
,9.786005,6.17E-11,,
,9.788005,6.18E-11,,
,9.790005,6.19E-11,,
,9.792005,6.15E-11,,
,9.794005,6.10E-11,,
,9.796005,6.04E-11,,
,9.798005,6.03E-11,,
,9.800005,6.10E-11,,
,9.802005,6.17E-11,,
,9.804005,6.23E-11,,
,9.806005,6.20E-11,,
,9.808005,6.17E-11,,
,9.810005,6.12E-11,,
,9.812005,6.12E-11,,
,9.814005,6.12E-11,,
,9.816005,6.14E-11,,
,9.818005,6.17E-11,,
,9.820005,6.22E-11,,
,9.822005,6.26E-11,,
,9.824005,6.23E-11,,
,9.826005,6.17E-11,,
,9.828005,6.14E-11,,
,9.830005,6.12E-11,,
,9.832005,6.16E-11,,
,9.834005,6.20E-11,,
,9.836005,6.27E-11,,
,9.838005,6.29E-11,,
,9.840005,6.29E-11,,
,9.842005,6.27E-11,,
,9.844005,6.25E-11,,
,9.846005,6.22E-11,,
,9.848005,6.23E-11,,
,9.850005,6.27E-11,,
,9.852005,6.34E-11,,
,9.854005,6.43E-11,,
,9.856005,6.47E-11,,
,9.858005,6.46E-11,,
,9.860005,6.41E-11,,
,9.862005,6.36E-11,,
,9.864005,6.36E-11,,
,9.866005,6.43E-11,,
,9.868005,6.50E-11,,
,9.870005,6.60E-11,,
,9.872005,6.64E-11,,
,9.874005,6.68E-11,,
,9.876005,6.66E-11,,
,9.878005,6.65E-11,,
,9.880005,6.68E-11,,
,9.882005,6.71E-11,,
,9.884005,6.76E-11,,
,9.886005,6.86E-11,,
,9.888005,6.94E-11,,
,9.890005,7.01E-11,,
,9.892005,7.00E-11,,
,9.894005,6.98E-11,,
,9.896005,6.98E-11,,
,9.898005,7.02E-11,,
,9.900005,7.10E-11,,
,9.902005,7.20E-11,,
,9.904005,7.27E-11,,
,9.906005,7.31E-11,,
,9.908005,7.29E-11,,
,9.910005,7.28E-11,,
,9.912005,7.25E-11,,
,9.914005,7.31E-11,,
,9.916005,7.39E-11,,
,9.918005,7.50E-11,,
,9.920005,7.61E-11,,
,9.922005,7.67E-11,,
,9.924005,7.68E-11,,
,9.926005,7.68E-11,,
,9.928005,7.67E-11,,
,9.930005,7.72E-11,,
,9.932005,7.76E-11,,
,9.934005,7.81E-11,,
,9.936005,7.91E-11,,
,9.938005,8.01E-11,,
,9.940005,8.07E-11,,
,9.942005,8.07E-11,,
,9.944005,8.05E-11,,
,9.946005,8.07E-11,,
,9.948005,8.11E-11,,
,9.950005,8.17E-11,,
,9.952005,8.26E-11,,
,9.954005,8.36E-11,,
,9.956005,8.44E-11,,
,9.958005,8.44E-11,,
,9.960005,8.41E-11,,
,9.962005,8.40E-11,,
,9.964005,8.45E-11,,
,9.966005,8.51E-11,,
,9.968005,8.62E-11,,
,9.970005,8.73E-11,,
,9.972005,8.80E-11,,
,9.974005,8.80E-11,,
,9.976005,8.77E-11,,
,9.978005,8.75E-11,,
,9.980005,8.76E-11,,
,9.982005,8.80E-11,,
,9.984005,8.91E-11,,
,9.986005,9.04E-11,,
,9.988005,9.13E-11,,
,9.990005,9.15E-11,,
,9.992005,9.12E-11,,
,9.994005,9.09E-11,,
,9.996005,9.09E-11,,
,9.998005,9.14E-11,,
,10.000005,9.22E-11,,
,10.002005,9.32E-11,,
,10.004005,9.38E-11,,
,10.006005,9.42E-11,,
,10.008005,9.42E-11,,
,10.010005,9.41E-11,,
,10.012005,9.40E-11,,
,10.014005,9.44E-11,,
,10.016005,9.51E-11,,
,10.018005,9.60E-11,,
,10.020005,9.66E-11,,
,10.022005,9.70E-11,,
,10.024005,9.71E-11,,
,10.026005,9.71E-11,,
,10.028005,9.68E-11,,
,10.030005,9.69E-11,,
,10.032005,9.72E-11,,
,10.034005,9.82E-11,,
,10.036005,9.91E-11,,
,10.038005,9.95E-11,,
,10.040005,9.97E-11,,
,10.042005,9.95E-11,,
,10.044005,9.91E-11,,
,10.046005,9.88E-11,,
,10.048005,9.90E-11,,
,10.050005,9.96E-11,,
,10.052005,1.00E-10,,
,10.054005,1.01E-10,,
,10.056005,1.02E-10,,
,10.058005,1.01E-10,,
,10.060005,1.01E-10,,
,10.062005,1.00E-10,,
,10.064005,1.01E-10,,
,10.066005,1.01E-10,,
,10.068005,1.02E-10,,
,10.070005,1.02E-10,,
,10.072005,1.02E-10,,
,10.074005,1.02E-10,,
,10.076005,1.02E-10,,
,10.078005,1.01E-10,,
,10.080005,1.01E-10,,
,10.082005,1.01E-10,,
,10.084005,1.02E-10,,
,10.086005,1.02E-10,,
,10.088005,1.02E-10,,
,10.090005,1.02E-10,,
,10.092005,1.02E-10,,
,10.094005,1.01E-10,,
,10.096005,1.01E-10,,
,10.098005,1.00E-10,,
,10.100005,1.01E-10,,
,10.102005,1.01E-10,,
,10.104005,1.02E-10,,
,10.106005,1.02E-10,,
,10.108005,1.01E-10,,
,10.110005,1.00E-10,,
,10.112005,9.95E-11,,
,10.114005,9.92E-11,,
,10.116005,9.93E-11,,
,10.118005,9.96E-11,,
,10.120005,9.99E-11,,
,10.122005,9.97E-11,,
,10.124005,9.93E-11,,
,10.126005,9.85E-11,,
,10.128005,9.79E-11,,
,10.130005,9.72E-11,,
,10.132005,9.71E-11,,
,10.134005,9.75E-11,,
,10.136005,9.77E-11,,
,10.138005,9.77E-11,,
,10.140005,9.72E-11,,
,10.142005,9.66E-11,,
,10.144005,9.58E-11,,
,10.146005,9.53E-11,,
,10.148005,9.51E-11,,
,10.150005,9.52E-11,,
,10.152005,9.51E-11,,
,10.154005,9.51E-11,,
,10.156005,9.47E-11,,
,10.158005,9.42E-11,,
,10.160005,9.34E-11,,
,10.162005,9.25E-11,,
,10.164005,9.18E-11,,
,10.166005,9.13E-11,,
,10.168005,9.14E-11,,
,10.170005,9.17E-11,,
,10.172005,9.17E-11,,
,10.174005,9.09E-11,,
,10.176005,8.99E-11,,
,10.178005,8.90E-11,,
,10.180005,8.84E-11,,
,10.182005,8.81E-11,,
,10.184005,8.79E-11,,
,10.186005,8.78E-11,,
,10.188005,8.77E-11,,
,10.190005,8.73E-11,,
,10.192005,8.63E-11,,
,10.194005,8.52E-11,,
,10.196005,8.45E-11,,
,10.198005,8.41E-11,,
,10.200005,8.38E-11,,
,10.202005,8.37E-11,,
,10.204005,8.36E-11,,
,10.206005,8.33E-11,,
,10.208005,8.25E-11,,
,10.210005,8.15E-11,,
,10.212005,8.06E-11,,
,10.214005,8.02E-11,,
,10.216005,8.00E-11,,
,10.218005,7.98E-11,,
,10.220005,7.95E-11,,
,10.222005,7.93E-11,,
,10.224005,7.87E-11,,
,10.226005,7.77E-11,,
,10.228005,7.65E-11,,
,10.230005,7.58E-11,,
,10.232005,7.54E-11,,
,10.234005,7.52E-11,,
,10.236005,7.50E-11,,
,10.238005,7.48E-11,,
,10.240005,7.42E-11,,
,10.242005,7.34E-11,,
,10.244005,7.21E-11,,
,10.246005,7.14E-11,,
,10.248005,7.06E-11,,
,10.250005,7.05E-11,,
,10.252005,7.04E-11,,
,10.254005,7.03E-11,,
,10.256005,6.99E-11,,
,10.258005,6.90E-11,,
,10.260005,6.78E-11,,
,10.262005,6.68E-11,,
,10.264005,6.58E-11,,
,10.266005,6.54E-11,,
,10.268005,6.51E-11,,
,10.270005,6.51E-11,,
,10.272005,6.48E-11,,
,10.274005,6.36E-11,,
,10.276005,6.23E-11,,
,10.278005,6.07E-11,,
,10.280005,6.00E-11,,
,10.282005,5.89E-11,,
,10.284005,5.84E-11,,
,10.286005,5.76E-11,,
,10.288005,5.73E-11,,
,10.290005,5.66E-11,,
,10.292005,5.53E-11,,
,10.294005,5.37E-11,,
,10.296005,5.21E-11,,
,10.298005,5.12E-11,,
,10.300005,5.05E-11,,
,10.302005,4.99E-11,,
,10.304005,4.91E-11,,
,10.306005,4.80E-11,,
,10.308005,4.66E-11,,
,10.310005,4.52E-11,,
,10.312005,4.37E-11,,
,10.314005,4.26E-11,,
,10.316005,4.15E-11,,
,10.318005,4.09E-11,,
,10.320005,3.99E-11,,
,10.322005,3.91E-11,,
,10.324005,3.77E-11,,
,10.326005,3.59E-11,,
,10.328005,3.42E-11,,
,10.330005,3.26E-11,,
,10.332005,3.18E-11,,
,10.334005,3.09E-11,,
,10.336005,3.01E-11,,
,10.338005,2.89E-11,,
,10.340005,2.72E-11,,
,10.342005,2.54E-11,,
,10.344005,2.37E-11,,
,10.346005,2.21E-11,,
,10.348005,2.12E-11,,
,10.350005,2.03E-11,,
,10.352005,1.95E-11,,
,10.354005,1.83E-11,,
,10.356005,1.73E-11,,
,10.358005,1.58E-11,,
,10.360005,1.39E-11,,
,10.362005,1.21E-11,,
,10.364005,1.07E-11,,
,10.366005,9.85E-12,,
,10.368005,9.31E-12,,
,10.370005,8.67E-12,,
,10.372005,7.92E-12,,
,10.374005,6.52E-12,,
,10.376005,4.81E-12,,
,10.378005,3.09E-12,,
,10.380005,1.80E-12,,
,10.382005,1.05E-12,,
,10.384005,4.04E-13,,
,10.386005,8.20E-14,,
,10.388005,-4.55E-13,,
,10.390005,-1.21E-12,,
,10.392005,-2.39E-12,,
,10.394005,-3.89E-12,,
,10.396005,-4.96E-12,,
,10.398005,-5.61E-12,,
,10.400005,-5.72E-12,,
,10.402005,-5.82E-12,,
,10.404005,-6.04E-12,,
,10.406005,-6.25E-12,,
,10.408005,-6.79E-12,,
,10.410005,-7.75E-12,,
,10.412005,-8.72E-12,,
,10.414005,-9.15E-12,,
,10.416005,-9.04E-12,,
,10.418005,-8.83E-12,,
,10.420005,-8.83E-12,,
,10.422005,-9.04E-12,,
,10.424005,-9.37E-12,,
,10.426005,-9.79E-12,,
,10.428005,-1.01E-11,,
,10.430005,-1.01E-11,,
,10.432005,-1.00E-11,,
,10.434005,-9.47E-12,,
,10.436005,-8.83E-12,,
,10.438005,-8.18E-12,,
,10.440005,-8.08E-12,,
,10.442005,-8.29E-12,,
,10.444005,-8.40E-12,,
,10.446005,-8.61E-12,,
,10.448005,-8.40E-12,,
,10.450005,-7.75E-12,,
,10.452005,-6.36E-12,,
,10.454005,-5.29E-12,,
,10.456005,-4.64E-12,,
,10.458005,-4.64E-12,,
,10.460005,-4.64E-12,,
,10.462005,-4.43E-12,,
,10.464005,-3.78E-12,,
,10.466005,-3.03E-12,,
,10.468005,-2.28E-12,,
,10.470005,-1.10E-12,,
,10.472005,-2.53E-14,,
,10.474005,7.26E-13,,
,10.476005,8.34E-13,,
,10.478005,9.41E-13,,
,10.480005,1.48E-12,,
,10.482005,2.34E-12,,
,10.484005,3.62E-12,,
,10.486005,4.91E-12,,
,10.488005,6.20E-12,,
,10.490005,7.06E-12,,
,10.492005,7.49E-12,,
,10.494005,7.38E-12,,
,10.496005,7.70E-12,,
,10.498005,8.24E-12,,
,10.500005,9.74E-12,,
,10.502005,1.10E-11,,
,10.504005,1.22E-11,,
,10.506005,1.29E-11,,
,10.508005,1.33E-11,,
,10.510005,1.37E-11,,
,10.512005,1.38E-11,,
,10.514005,1.44E-11,,
,10.516005,1.52E-11,,
,10.518005,1.66E-11,,
,10.520005,1.78E-11,,
,10.522005,1.87E-11,,
,10.524005,1.91E-11,,
,10.526005,1.92E-11,,
,10.528005,1.92E-11,,
,10.530005,1.93E-11,,
,10.532005,1.97E-11,,
,10.534005,2.06E-11,,
,10.536005,2.17E-11,,
,10.538005,2.27E-11,,
,10.540005,2.34E-11,,
,10.542005,2.34E-11,,
,10.544005,2.31E-11,,
,10.546005,2.31E-11,,
,10.548005,2.36E-11,,
,10.550005,2.42E-11,,
,10.552005,2.50E-11,,
,10.554005,2.57E-11,,
,10.556005,2.65E-11,,
,10.558005,2.67E-11,,
,10.560005,2.65E-11,,
,10.562005,2.62E-11,,
,10.564005,2.62E-11,,
,10.566005,2.65E-11,,
,10.568005,2.70E-11,,
,10.570005,2.79E-11,,
,10.572005,2.85E-11,,
,10.574005,2.90E-11,,
,10.576005,2.83E-11,,
,10.578005,2.79E-11,,
,10.580005,2.75E-11,,
,10.582005,2.79E-11,,
,10.584005,2.86E-11,,
,10.586005,2.94E-11,,
,10.588005,3.00E-11,,
,10.590005,3.00E-11,,
,10.592005,2.98E-11,,
,10.594005,2.94E-11,,
,10.596005,2.92E-11,,
,10.598005,2.94E-11,,
,10.600005,2.99E-11,,
,10.602005,3.06E-11,,
,10.604005,3.12E-11,,
,10.606005,3.14E-11,,
,10.608005,3.12E-11,,
,10.610005,3.08E-11,,
,10.612005,3.05E-11,,
,10.614005,3.06E-11,,
,10.616005,3.10E-11,,
,10.618005,3.14E-11,,
,10.620005,3.21E-11,,
,10.622005,3.23E-11,,
,10.624005,3.21E-11,,
,10.626005,3.16E-11,,
,10.628005,3.12E-11,,
,10.630005,3.12E-11,,
,10.632005,3.13E-11,,
,10.634005,3.18E-11,,
,10.636005,3.25E-11,,
,10.638005,3.29E-11,,
,10.640005,3.29E-11,,
,10.642005,3.24E-11,,
,10.644005,3.20E-11,,
,10.646005,3.18E-11,,
,10.648005,3.20E-11,,
,10.650005,3.24E-11,,
,10.652005,3.29E-11,,
,10.654005,3.34E-11,,
,10.656005,3.30E-11,,
,10.658005,3.28E-11,,
,10.660005,3.21E-11,,
,10.662005,3.21E-11,,
,10.664005,3.19E-11,,
,10.666005,3.24E-11,,
,10.668005,3.29E-11,,
,10.670005,3.35E-11,,
,10.672005,3.39E-11,,
,10.674005,3.35E-11,,
,10.676005,3.31E-11,,
,10.678005,3.23E-11,,
,10.680005,3.24E-11,,
,10.682005,3.26E-11,,
,10.684005,3.34E-11,,
,10.686005,3.39E-11,,
,10.688005,3.43E-11,,
,10.690005,3.45E-11,,
,10.692005,3.42E-11,,
,10.694005,3.38E-11,,
,10.696005,3.34E-11,,
,10.698005,3.34E-11,,
,10.700005,3.38E-11,,
,10.702005,3.43E-11,,
,10.704005,3.49E-11,,
,10.706005,3.50E-11,,
,10.708005,3.48E-11,,
,10.710005,3.44E-11,,
,10.712005,3.41E-11,,
,10.714005,3.41E-11,,
,10.716005,3.44E-11,,
,10.718005,3.51E-11,,
,10.720005,3.59E-11,,
,10.722005,3.66E-11,,
,10.724005,3.65E-11,,
,10.726005,3.57E-11,,
,10.728005,3.52E-11,,
,10.730005,3.52E-11,,
,10.732005,3.56E-11,,
,10.734005,3.63E-11,,
,10.736005,3.69E-11,,
,10.738005,3.75E-11,,
,10.740005,3.75E-11,,
,10.742005,3.74E-11,,
,10.744005,3.72E-11,,
,10.746005,3.71E-11,,
,10.748005,3.72E-11,,
,10.750005,3.77E-11,,
,10.752005,3.84E-11,,
,10.754005,3.91E-11,,
,10.756005,3.93E-11,,
,10.758005,3.93E-11,,
,10.760005,3.88E-11,,
,10.762005,3.86E-11,,
,10.764005,3.84E-11,,
,10.766005,3.88E-11,,
,10.768005,3.94E-11,,
,10.770005,4.02E-11,,
,10.772005,4.07E-11,,
,10.774005,4.08E-11,,
,10.776005,4.04E-11,,
,10.778005,4.01E-11,,
,10.780005,3.99E-11,,
,10.782005,3.99E-11,,
,10.784005,4.04E-11,,
,10.786005,4.12E-11,,
,10.788005,4.18E-11,,
,10.790005,4.21E-11,,
,10.792005,4.20E-11,,
,10.794005,4.15E-11,,
,10.796005,4.13E-11,,
,10.798005,4.13E-11,,
,10.800005,4.20E-11,,
,10.802005,4.26E-11,,
,10.804005,4.32E-11,,
,10.806005,4.35E-11,,
,10.808005,4.33E-11,,
,10.810005,4.28E-11,,
,10.812005,4.26E-11,,
,10.814005,4.25E-11,,
,10.816005,4.30E-11,,
,10.818005,4.38E-11,,
,10.820005,4.45E-11,,
,10.822005,4.51E-11,,
,10.824005,4.47E-11,,
,10.826005,4.46E-11,,
,10.828005,4.40E-11,,
,10.830005,4.41E-11,,
,10.832005,4.43E-11,,
,10.834005,4.52E-11,,
,10.836005,4.57E-11,,
,10.838005,4.62E-11,,
,10.840005,4.65E-11,,
,10.842005,4.64E-11,,
,10.844005,4.58E-11,,
,10.846005,4.56E-11,,
,10.848005,4.59E-11,,
,10.850005,4.66E-11,,
,10.852005,4.71E-11,,
,10.854005,4.77E-11,,
,10.856005,4.79E-11,,
,10.858005,4.77E-11,,
,10.860005,4.72E-11,,
,10.862005,4.69E-11,,
,10.864005,4.68E-11,,
,10.866005,4.71E-11,,
,10.868005,4.76E-11,,
,10.870005,4.85E-11,,
,10.872005,4.86E-11,,
,10.874005,4.86E-11,,
,10.876005,4.80E-11,,
,10.878005,4.76E-11,,
,10.880005,4.74E-11,,
,10.882005,4.74E-11,,
,10.884005,4.76E-11,,
,10.886005,4.81E-11,,
,10.888005,4.88E-11,,
,10.890005,4.91E-11,,
,10.892005,4.88E-11,,
,10.894005,4.82E-11,,
,10.896005,4.77E-11,,
,10.898005,4.79E-11,,
,10.900005,4.81E-11,,
,10.902005,4.86E-11,,
,10.904005,4.89E-11,,
,10.906005,4.93E-11,,
,10.908005,4.91E-11,,
,10.910005,4.89E-11,,
,10.912005,4.84E-11,,
,10.914005,4.81E-11,,
,10.916005,4.81E-11,,
,10.918005,4.85E-11,,
,10.920005,4.93E-11,,
,10.922005,4.97E-11,,
,10.924005,4.99E-11,,
,10.926005,4.94E-11,,
,10.928005,4.86E-11,,
,10.930005,4.82E-11,,
,10.932005,4.85E-11,,
,10.934005,4.90E-11,,
,10.936005,4.97E-11,,
,10.938005,4.98E-11,,
,10.940005,5.00E-11,,
,10.942005,4.97E-11,,
,10.944005,4.94E-11,,
,10.946005,4.88E-11,,
,10.948005,4.86E-11,,
,10.950005,4.88E-11,,
,10.952005,4.95E-11,,
,10.954005,4.99E-11,,
,10.956005,5.00E-11,,
,10.958005,4.97E-11,,
,10.960005,4.91E-11,,
,10.962005,4.88E-11,,
,10.964005,4.85E-11,,
,10.966005,4.86E-11,,
,10.968005,4.90E-11,,
,10.970005,4.97E-11,,
,10.972005,5.00E-11,,
,10.974005,4.97E-11,,
,10.976005,4.91E-11,,
,10.978005,4.88E-11,,
,10.980005,4.86E-11,,
,10.982005,4.88E-11,,
,10.984005,4.90E-11,,
,10.986005,4.97E-11,,
,10.988005,5.03E-11,,
,10.990005,5.06E-11,,
,10.992005,5.03E-11,,
,10.994005,4.97E-11,,
,10.996005,4.93E-11,,
,10.998005,4.93E-11,,
,11.000005,4.96E-11,,
,11.002005,5.01E-11,,
,11.004005,5.08E-11,,
,11.006005,5.12E-11,,
,11.008005,5.12E-11,,
,11.010005,5.06E-11,,
,11.012005,5.02E-11,,
,11.014005,5.00E-11,,
,11.016005,5.03E-11,,
,11.018005,5.09E-11,,
,11.020005,5.16E-11,,
,11.022005,5.20E-11,,
,11.024005,5.18E-11,,
,11.026005,5.12E-11,,
,11.028005,5.08E-11,,
,11.030005,5.04E-11,,
,11.032005,5.06E-11,,
,11.034005,5.08E-11,,
,11.036005,5.13E-11,,
,11.038005,5.18E-11,,
,11.040005,5.19E-11,,
,11.042005,5.15E-11,,
,11.044005,5.05E-11,,
,11.046005,5.02E-11,,
,11.048005,5.03E-11,,
,11.050005,5.06E-11,,
,11.052005,5.12E-11,,
,11.054005,5.14E-11,,
,11.056005,5.16E-11,,
,11.058005,5.11E-11,,
,11.060005,5.05E-11,,
,11.062005,4.98E-11,,
,11.064005,4.93E-11,,
,11.066005,4.91E-11,,
,11.068005,4.95E-11,,
,11.070005,4.99E-11,,
,11.072005,5.01E-11,,
,11.074005,4.97E-11,,
,11.076005,4.91E-11,,
,11.078005,4.84E-11,,
,11.080005,4.81E-11,,
,11.082005,4.80E-11,,
,11.084005,4.83E-11,,
,11.086005,4.85E-11,,
,11.088005,4.87E-11,,
,11.090005,4.83E-11,,
,11.092005,4.80E-11,,
,11.094005,4.69E-11,,
,11.096005,4.61E-11,,
,11.098005,4.56E-11,,
,11.100005,4.58E-11,,
,11.102005,4.61E-11,,
,11.104005,4.65E-11,,
,11.106005,4.64E-11,,
,11.108005,4.60E-11,,
,11.110005,4.52E-11,,
,11.112005,4.45E-11,,
,11.114005,4.41E-11,,
,11.116005,4.42E-11,,
,11.118005,4.44E-11,,
,11.120005,4.45E-11,,
,11.122005,4.46E-11,,
,11.124005,4.43E-11,,
,11.126005,4.39E-11,,
,11.128005,4.27E-11,,
,11.130005,4.23E-11,,
,11.132005,4.18E-11,,
,11.134005,4.22E-11,,
,11.136005,4.24E-11,,
,11.138005,4.26E-11,,
,11.140005,4.25E-11,,
,11.142005,4.17E-11,,
,11.144005,4.09E-11,,
,11.146005,4.01E-11,,
,11.148005,3.99E-11,,
,11.150005,4.01E-11,,
,11.152005,4.06E-11,,
,11.154005,4.06E-11,,
,11.156005,4.03E-11,,
,11.158005,3.98E-11,,
,11.160005,3.93E-11,,
,11.162005,3.85E-11,,
