5/8/2019, 11:27:14 AM ,,,
 Current Sensitivity ,1.00E-09,,,
 This file comes from It only measurement ,0.00E+00,,,
 Sampling rate ,500,,,
 Number of samples per channel ,-1,,,
 No filter from Labview , , , ,
 , ,,,
 ***End_of_Header*** ,,,,
 , Time , Current , Filtered Current , 
,3.01E-06,-2.14E-11,,
,0.002003,-4.26E-11,,
,0.004003,-6.38E-11,,
,0.006003,-6.36E-11,,
,0.008003,-6.30E-11,,
,0.010003,-6.22E-11,,
,0.012003,-6.08E-11,,
,0.014003,-5.95E-11,,
,0.016003,-5.82E-11,,
,0.018003,-5.71E-11,,
,0.020003,-5.66E-11,,
,0.022003,-5.62E-11,,
,0.024003,-5.62E-11,,
,0.026003,-5.56E-11,,
,0.028003,-5.49E-11,,
,0.030003,-5.35E-11,,
,0.032003,-5.24E-11,,
,0.034003,-5.16E-11,,
,0.036003,-5.10E-11,,
,0.038003,-5.08E-11,,
,0.040003,-5.06E-11,,
,0.042003,-5.05E-11,,
,0.044003,-4.98E-11,,
,0.046003,-4.90E-11,,
,0.048003,-4.81E-11,,
,0.050003,-4.73E-11,,
,0.052003,-4.68E-11,,
,0.054003,-4.67E-11,,
,0.056003,-4.69E-11,,
,0.058003,-4.73E-11,,
,0.060003,-4.70E-11,,
,0.062003,-4.64E-11,,
,0.064003,-4.54E-11,,
,0.066003,-4.48E-11,,
,0.068003,-4.47E-11,,
,0.070003,-4.48E-11,,
,0.072003,-4.51E-11,,
,0.074003,-4.54E-11,,
,0.076003,-4.57E-11,,
,0.078003,-4.51E-11,,
,0.080003,-4.44E-11,,
,0.082003,-4.36E-11,,
,0.084003,-4.34E-11,,
,0.086003,-4.33E-11,,
,0.088003,-4.35E-11,,
,0.090003,-4.38E-11,,
,0.092003,-4.43E-11,,
,0.094003,-4.43E-11,,
,0.096003,-4.40E-11,,
,0.098003,-4.36E-11,,
,0.100003,-4.32E-11,,
,0.102003,-4.31E-11,,
,0.104003,-4.33E-11,,
,0.106003,-4.39E-11,,
,0.108003,-4.44E-11,,
,0.110003,-4.44E-11,,
,0.112003,-4.39E-11,,
,0.114003,-4.33E-11,,
,0.116003,-4.29E-11,,
,0.118003,-4.30E-11,,
,0.120003,-4.34E-11,,
,0.122003,-4.41E-11,,
,0.124003,-4.46E-11,,
,0.126003,-4.50E-11,,
,0.128003,-4.50E-11,,
,0.130003,-4.48E-11,,
,0.132003,-4.46E-11,,
,0.134003,-4.46E-11,,
,0.136003,-4.49E-11,,
,0.138003,-4.53E-11,,
,0.140003,-4.58E-11,,
,0.142003,-4.62E-11,,
,0.144003,-4.62E-11,,
,0.146003,-4.61E-11,,
,0.148003,-4.58E-11,,
,0.150003,-4.58E-11,,
,0.152003,-4.60E-11,,
,0.154003,-4.67E-11,,
,0.156003,-4.74E-11,,
,0.158003,-4.80E-11,,
,0.160003,-4.82E-11,,
,0.162003,-4.84E-11,,
,0.164003,-4.83E-11,,
,0.166003,-4.82E-11,,
,0.168003,-4.84E-11,,
,0.170003,-4.92E-11,,
,0.172003,-5.02E-11,,
,0.174003,-5.09E-11,,
,0.176003,-5.11E-11,,
,0.178003,-5.11E-11,,
,0.180003,-5.12E-11,,
,0.182003,-5.13E-11,,
,0.184003,-5.16E-11,,
,0.186003,-5.20E-11,,
,0.188003,-5.31E-11,,
,0.190003,-5.40E-11,,
,0.192003,-5.50E-11,,
,0.194003,-5.55E-11,,
,0.196003,-5.60E-11,,
,0.198003,-5.60E-11,,
,0.200003,-5.63E-11,,
,0.202003,-5.69E-11,,
,0.204003,-5.80E-11,,
,0.206003,-5.91E-11,,
,0.208003,-6.01E-11,,
,0.210003,-6.10E-11,,
,0.212003,-6.14E-11,,
,0.214003,-6.16E-11,,
,0.216003,-6.18E-11,,
,0.218003,-6.23E-11,,
,0.220003,-6.32E-11,,
,0.222003,-6.44E-11,,
,0.224003,-6.54E-11,,
,0.226003,-6.63E-11,,
,0.228003,-6.67E-11,,
,0.230003,-6.71E-11,,
,0.232003,-6.74E-11,,
,0.234003,-6.81E-11,,
,0.236003,-6.88E-11,,
,0.238003,-7.00E-11,,
,0.240003,-7.10E-11,,
,0.242003,-7.21E-11,,
,0.244003,-7.26E-11,,
,0.246003,-7.29E-11,,
,0.248003,-7.31E-11,,
,0.250003,-7.32E-11,,
,0.252003,-7.36E-11,,
,0.254003,-7.39E-11,,
,0.256003,-7.51E-11,,
,0.258003,-7.60E-11,,
,0.260003,-7.69E-11,,
,0.262003,-7.72E-11,,
,0.264003,-7.74E-11,,
,0.266003,-7.75E-11,,
,0.268003,-7.79E-11,,
,0.270003,-7.86E-11,,
,0.272003,-7.97E-11,,
,0.274003,-8.04E-11,,
,0.276003,-8.11E-11,,
,0.278003,-8.15E-11,,
,0.280003,-8.16E-11,,
,0.282003,-8.17E-11,,
,0.284003,-8.17E-11,,
,0.286003,-8.26E-11,,
,0.288003,-8.35E-11,,
,0.290003,-8.46E-11,,
,0.292003,-8.54E-11,,
,0.294003,-8.58E-11,,
,0.296003,-8.63E-11,,
,0.298003,-8.62E-11,,
,0.300003,-8.61E-11,,
,0.302003,-8.62E-11,,
,0.304003,-8.70E-11,,
,0.306003,-8.79E-11,,
,0.308003,-8.87E-11,,
,0.310003,-8.92E-11,,
,0.312003,-8.93E-11,,
,0.314003,-8.90E-11,,
,0.316003,-8.84E-11,,
,0.318003,-8.83E-11,,
,0.320003,-8.85E-11,,
,0.322003,-8.90E-11,,
,0.324003,-8.91E-11,,
,0.326003,-8.90E-11,,
,0.328003,-8.85E-11,,
,0.330003,-8.78E-11,,
,0.332003,-8.69E-11,,
,0.334003,-8.61E-11,,
,0.336003,-8.54E-11,,
,0.338003,-8.51E-11,,
,0.340003,-8.46E-11,,
,0.342003,-8.40E-11,,
,0.344003,-8.30E-11,,
,0.346003,-8.16E-11,,
,0.348003,-8.01E-11,,
,0.350003,-7.84E-11,,
,0.352003,-7.73E-11,,
,0.354003,-7.66E-11,,
,0.356003,-7.59E-11,,
,0.358003,-7.52E-11,,
,0.360003,-7.41E-11,,
,0.362003,-7.29E-11,,
,0.364003,-7.13E-11,,
,0.366003,-6.94E-11,,
,0.368003,-6.78E-11,,
,0.370003,-6.64E-11,,
,0.372003,-6.55E-11,,
,0.374003,-6.45E-11,,
,0.376003,-6.34E-11,,
,0.378003,-6.20E-11,,
,0.380003,-6.01E-11,,
,0.382003,-5.83E-11,,
,0.384003,-5.64E-11,,
,0.386003,-5.49E-11,,
,0.388003,-5.38E-11,,
,0.390003,-5.30E-11,,
,0.392003,-5.19E-11,,
,0.394003,-5.02E-11,,
,0.396003,-4.82E-11,,
,0.398003,-4.63E-11,,
,0.400003,-4.45E-11,,
,0.402003,-4.30E-11,,
,0.404003,-4.17E-11,,
,0.406003,-4.06E-11,,
,0.408003,-3.92E-11,,
,0.410003,-3.75E-11,,
,0.412003,-3.55E-11,,
,0.414003,-3.33E-11,,
,0.416003,-3.12E-11,,
,0.418003,-2.94E-11,,
,0.420003,-2.82E-11,,
,0.422003,-2.71E-11,,
,0.424003,-2.58E-11,,
,0.426003,-2.43E-11,,
,0.428003,-2.25E-11,,
,0.430003,-2.02E-11,,
,0.432003,-1.78E-11,,
,0.434003,-1.55E-11,,
,0.436003,-1.37E-11,,
,0.438003,-1.19E-11,,
,0.440003,-1.05E-11,,
,0.442003,-8.94E-12,,
,0.444003,-6.90E-12,,
,0.446003,-4.10E-12,,
,0.448003,-1.21E-12,,
,0.450003,1.59E-12,,
,0.452003,3.95E-12,,
,0.454003,6.52E-12,,
,0.456003,8.56E-12,,
,0.458003,1.07E-11,,
,0.460003,1.30E-11,,
,0.462003,1.60E-11,,
,0.464003,1.94E-11,,
,0.466003,2.26E-11,,
,0.468003,2.57E-11,,
,0.470003,2.83E-11,,
,0.472003,3.09E-11,,
,0.474003,3.36E-11,,
,0.476003,3.66E-11,,
,0.478003,4.00E-11,,
,0.480003,4.38E-11,,
,0.482003,4.76E-11,,
,0.484003,5.13E-11,,
,0.486003,5.45E-11,,
,0.488003,5.77E-11,,
,0.490003,6.08E-11,,
,0.492003,6.42E-11,,
,0.494003,6.78E-11,,
,0.496003,7.19E-11,,
,0.498003,7.64E-11,,
,0.500003,8.06E-11,,
,0.502003,8.49E-11,,
,0.504003,8.87E-11,,
,0.506003,9.22E-11,,
,0.508003,9.56E-11,,
,0.510003,9.97E-11,,
,0.512003,1.04E-10,,
,0.514003,1.09E-10,,
,0.516003,1.14E-10,,
,0.518003,1.19E-10,,
,0.520003,1.24E-10,,
,0.522003,1.28E-10,,
,0.524003,1.32E-10,,
,0.526003,1.37E-10,,
,0.528003,1.42E-10,,
,0.530003,1.47E-10,,
,0.532003,1.53E-10,,
,0.534003,1.58E-10,,
,0.536003,1.63E-10,,
,0.538003,1.68E-10,,
,0.540003,1.73E-10,,
,0.542003,1.78E-10,,
,0.544003,1.83E-10,,
,0.546003,1.89E-10,,
,0.548003,1.95E-10,,
,0.550003,2.01E-10,,
,0.552003,2.06E-10,,
,0.554003,2.11E-10,,
,0.556003,2.17E-10,,
,0.558003,2.22E-10,,
,0.560003,2.27E-10,,
,0.562003,2.32E-10,,
,0.564003,2.38E-10,,
,0.566003,2.44E-10,,
,0.568003,2.49E-10,,
,0.570003,2.54E-10,,
,0.572003,2.59E-10,,
,0.574003,2.63E-10,,
,0.576003,2.68E-10,,
,0.578003,2.73E-10,,
,0.580003,2.79E-10,,
,0.582003,2.85E-10,,
,0.584003,2.90E-10,,
,0.586003,2.95E-10,,
,0.588003,2.99E-10,,
,0.590003,3.03E-10,,
,0.592003,3.07E-10,,
,0.594003,3.11E-10,,
,0.596003,3.16E-10,,
,0.598003,3.20E-10,,
,0.600003,3.25E-10,,
,0.602003,3.28E-10,,
,0.604003,3.32E-10,,
,0.606003,3.35E-10,,
,0.608003,3.38E-10,,
,0.610003,3.42E-10,,
,0.612003,3.45E-10,,
,0.614003,3.48E-10,,
,0.616003,3.52E-10,,
,0.618003,3.54E-10,,
,0.620003,3.57E-10,,
,0.622003,3.59E-10,,
,0.624003,3.60E-10,,
,0.626003,3.62E-10,,
,0.628003,3.65E-10,,
,0.630003,3.67E-10,,
,0.632003,3.69E-10,,
,0.634003,3.71E-10,,
,0.636003,3.72E-10,,
,0.638003,3.73E-10,,
,0.640003,3.73E-10,,
,0.642003,3.74E-10,,
,0.644003,3.75E-10,,
,0.646003,3.76E-10,,
,0.648003,3.77E-10,,
,0.650003,3.78E-10,,
,0.652003,3.78E-10,,
,0.654003,3.78E-10,,
,0.656003,3.77E-10,,
,0.658003,3.77E-10,,
,0.660003,3.77E-10,,
,0.662003,3.77E-10,,
,0.664003,3.77E-10,,
,0.666003,3.76E-10,,
,0.668003,3.76E-10,,
,0.670003,3.75E-10,,
,0.672003,3.74E-10,,
,0.674003,3.72E-10,,
,0.676003,3.71E-10,,
,0.678003,3.70E-10,,
,0.680003,3.69E-10,,
,0.682003,3.69E-10,,
,0.684003,3.68E-10,,
,0.686003,3.66E-10,,
,0.688003,3.64E-10,,
,0.690003,3.63E-10,,
,0.692003,3.61E-10,,
,0.694003,3.59E-10,,
,0.696003,3.58E-10,,
,0.698003,3.57E-10,,
,0.700003,3.55E-10,,
,0.702003,3.54E-10,,
,0.704003,3.52E-10,,
,0.706003,3.49E-10,,
,0.708003,3.47E-10,,
,0.710003,3.45E-10,,
,0.712003,3.43E-10,,
,0.714003,3.41E-10,,
,0.716003,3.40E-10,,
,0.718003,3.38E-10,,
,0.720003,3.36E-10,,
,0.722003,3.33E-10,,
,0.724003,3.30E-10,,
,0.726003,3.28E-10,,
,0.728003,3.25E-10,,
,0.730003,3.23E-10,,
,0.732003,3.22E-10,,
,0.734003,3.20E-10,,
,0.736003,3.17E-10,,
,0.738003,3.14E-10,,
,0.740003,3.11E-10,,
,0.742003,3.09E-10,,
,0.744003,3.06E-10,,
,0.746003,3.04E-10,,
,0.748003,3.02E-10,,
,0.750003,3.00E-10,,
,0.752003,2.98E-10,,
,0.754003,2.95E-10,,
,0.756003,2.92E-10,,
,0.758003,2.90E-10,,
,0.760003,2.87E-10,,
,0.762003,2.85E-10,,
,0.764003,2.83E-10,,
,0.766003,2.81E-10,,
,0.768003,2.79E-10,,
,0.770003,2.77E-10,,
,0.772003,2.74E-10,,
,0.774003,2.71E-10,,
,0.776003,2.69E-10,,
,0.778003,2.67E-10,,
,0.780003,2.65E-10,,
,0.782003,2.63E-10,,
,0.784003,2.61E-10,,
,0.786003,2.59E-10,,
,0.788003,2.56E-10,,
,0.790003,2.53E-10,,
,0.792003,2.50E-10,,
,0.794003,2.48E-10,,
,0.796003,2.46E-10,,
,0.798003,2.44E-10,,
,0.800003,2.42E-10,,
,0.802003,2.39E-10,,
,0.804003,2.36E-10,,
,0.806003,2.33E-10,,
,0.808003,2.30E-10,,
,0.810003,2.27E-10,,
,0.812003,2.25E-10,,
,0.814003,2.23E-10,,
,0.816003,2.21E-10,,
,0.818003,2.18E-10,,
,0.820003,2.15E-10,,
,0.822003,2.12E-10,,
,0.824003,2.09E-10,,
,0.826003,2.05E-10,,
,0.828003,2.03E-10,,
,0.830003,2.00E-10,,
,0.832003,1.98E-10,,
,0.834003,1.95E-10,,
,0.836003,1.92E-10,,
,0.838003,1.89E-10,,
,0.840003,1.86E-10,,
,0.842003,1.83E-10,,
,0.844003,1.80E-10,,
,0.846003,1.78E-10,,
,0.848003,1.75E-10,,
,0.850003,1.72E-10,,
,0.852003,1.69E-10,,
,0.854003,1.66E-10,,
,0.856003,1.63E-10,,
,0.858003,1.60E-10,,
,0.860003,1.57E-10,,
,0.862003,1.55E-10,,
,0.864003,1.52E-10,,
,0.866003,1.50E-10,,
,0.868003,1.47E-10,,
,0.870003,1.44E-10,,
,0.872003,1.41E-10,,
,0.874003,1.38E-10,,
,0.876003,1.35E-10,,
,0.878003,1.32E-10,,
,0.880003,1.30E-10,,
,0.882003,1.28E-10,,
,0.884003,1.25E-10,,
,0.886003,1.22E-10,,
,0.888003,1.19E-10,,
,0.890003,1.16E-10,,
,0.892003,1.13E-10,,
,0.894003,1.10E-10,,
,0.896003,1.07E-10,,
,0.898003,1.05E-10,,
,0.900003,1.03E-10,,
,0.902003,9.99E-11,,
,0.904003,9.68E-11,,
,0.906003,9.35E-11,,
,0.908003,9.03E-11,,
,0.910003,8.75E-11,,
,0.912003,8.48E-11,,
,0.914003,8.23E-11,,
,0.916003,7.97E-11,,
,0.918003,7.68E-11,,
,0.920003,7.36E-11,,
,0.922003,7.02E-11,,
,0.924003,6.68E-11,,
,0.926003,6.36E-11,,
,0.928003,6.07E-11,,
,0.930003,5.81E-11,,
,0.932003,5.53E-11,,
,0.934003,5.23E-11,,
,0.936003,4.89E-11,,
,0.938003,4.53E-11,,
,0.940003,4.15E-11,,
,0.942003,3.81E-11,,
,0.944003,3.50E-11,,
,0.946003,3.24E-11,,
,0.948003,2.96E-11,,
,0.950003,2.69E-11,,
,0.952003,2.36E-11,,
,0.954003,2.02E-11,,
,0.956003,1.65E-11,,
,0.958003,1.32E-11,,
,0.960003,9.96E-12,,
,0.962003,7.06E-12,,
,0.964003,4.16E-12,,
,0.966003,1.69E-12,,
,0.968003,-1.21E-12,,
,0.970003,-4.10E-12,,
,0.972003,-7.33E-12,,
,0.974003,-1.04E-11,,
,0.976003,-1.34E-11,,
,0.978003,-1.61E-11,,
,0.980003,-1.86E-11,,
,0.982003,-2.10E-11,,
,0.984003,-2.34E-11,,
,0.986003,-2.61E-11,,
,0.988003,-2.90E-11,,
,0.990003,-3.20E-11,,
,0.992003,-3.49E-11,,
,0.994003,-3.75E-11,,
,0.996003,-4.00E-11,,
,0.998003,-4.21E-11,,
,1.000003,-4.44E-11,,
,1.002003,-4.70E-11,,
,1.004003,-5.02E-11,,
,1.006003,-5.34E-11,,
,1.008003,-5.63E-11,,
,1.010003,-5.90E-11,,
,1.012003,-6.12E-11,,
,1.014003,-6.36E-11,,
,1.016003,-6.57E-11,,
,1.018003,-6.87E-11,,
,1.020003,-7.18E-11,,
,1.022003,-7.55E-11,,
,1.024003,-7.90E-11,,
,1.026003,-8.23E-11,,
,1.028003,-8.55E-11,,
,1.030003,-8.83E-11,,
,1.032003,-9.13E-11,,
,1.034003,-9.41E-11,,
,1.036003,-9.76E-11,,
,1.038003,-1.01E-10,,
,1.040003,-1.05E-10,,
,1.042003,-1.09E-10,,
,1.044003,-1.13E-10,,
,1.046003,-1.16E-10,,
,1.048003,-1.19E-10,,
,1.050003,-1.23E-10,,
,1.052003,-1.27E-10,,
,1.054003,-1.31E-10,,
,1.056003,-1.35E-10,,
,1.058003,-1.40E-10,,
,1.060003,-1.44E-10,,
,1.062003,-1.48E-10,,
,1.064003,-1.51E-10,,
,1.066003,-1.55E-10,,
,1.068003,-1.59E-10,,
,1.070003,-1.64E-10,,
,1.072003,-1.68E-10,,
,1.074003,-1.73E-10,,
,1.076003,-1.77E-10,,
,1.078003,-1.81E-10,,
,1.080003,-1.85E-10,,
,1.082003,-1.89E-10,,
,1.084003,-1.92E-10,,
,1.086003,-1.96E-10,,
,1.088003,-2.01E-10,,
,1.090003,-2.06E-10,,
,1.092003,-2.10E-10,,
,1.094003,-2.14E-10,,
,1.096003,-2.18E-10,,
,1.098003,-2.22E-10,,
,1.100003,-2.25E-10,,
,1.102003,-2.29E-10,,
,1.104003,-2.34E-10,,
,1.106003,-2.38E-10,,
,1.108003,-2.43E-10,,
,1.110003,-2.47E-10,,
,1.112003,-2.50E-10,,
,1.114003,-2.53E-10,,
,1.116003,-2.57E-10,,
,1.118003,-2.60E-10,,
,1.120003,-2.64E-10,,
,1.122003,-2.69E-10,,
,1.124003,-2.73E-10,,
,1.126003,-2.76E-10,,
,1.128003,-2.79E-10,,
,1.130003,-2.82E-10,,
,1.132003,-2.85E-10,,
,1.134003,-2.88E-10,,
,1.136003,-2.91E-10,,
,1.138003,-2.94E-10,,
,1.140003,-2.97E-10,,
,1.142003,-3.00E-10,,
,1.144003,-3.03E-10,,
,1.146003,-3.05E-10,,
,1.148003,-3.07E-10,,
,1.150003,-3.08E-10,,
,1.152003,-3.11E-10,,
,1.154003,-3.13E-10,,
,1.156003,-3.16E-10,,
,1.158003,-3.18E-10,,
,1.160003,-3.21E-10,,
,1.162003,-3.23E-10,,
,1.164003,-3.24E-10,,
,1.166003,-3.26E-10,,
,1.168003,-3.29E-10,,
,1.170003,-3.31E-10,,
,1.172003,-3.34E-10,,
,1.174003,-3.36E-10,,
,1.176003,-3.39E-10,,
,1.178003,-3.41E-10,,
,1.180003,-3.43E-10,,
,1.182003,-3.46E-10,,
,1.184003,-3.48E-10,,
,1.186003,-3.51E-10,,
,1.188003,-3.55E-10,,
,1.190003,-3.58E-10,,
,1.192003,-3.62E-10,,
,1.194003,-3.65E-10,,
,1.196003,-3.68E-10,,
,1.198003,-3.71E-10,,
,1.200003,-3.73E-10,,
,1.202003,-3.77E-10,,
,1.204003,-3.81E-10,,
,1.206003,-3.85E-10,,
,1.208003,-3.89E-10,,
,1.210003,-3.93E-10,,
,1.212003,-3.97E-10,,
,1.214003,-4.01E-10,,
,1.216003,-4.05E-10,,
,1.218003,-4.08E-10,,
,1.220003,-4.13E-10,,
,1.222003,-4.17E-10,,
,1.224003,-4.22E-10,,
,1.226003,-4.26E-10,,
,1.228003,-4.30E-10,,
,1.230003,-4.34E-10,,
,1.232003,-4.38E-10,,
,1.234003,-4.42E-10,,
,1.236003,-4.47E-10,,
,1.238003,-4.52E-10,,
,1.240003,-4.57E-10,,
,1.242003,-4.62E-10,,
,1.244003,-4.66E-10,,
,1.246003,-4.71E-10,,
,1.248003,-4.75E-10,,
,1.250003,-4.79E-10,,
,1.252003,-4.84E-10,,
,1.254003,-4.89E-10,,
,1.256003,-4.94E-10,,
,1.258003,-4.99E-10,,
,1.260003,-5.03E-10,,
,1.262003,-5.07E-10,,
,1.264003,-5.12E-10,,
,1.266003,-5.16E-10,,
,1.268003,-5.21E-10,,
,1.270003,-5.26E-10,,
,1.272003,-5.31E-10,,
,1.274003,-5.35E-10,,
,1.276003,-5.40E-10,,
,1.278003,-5.44E-10,,
,1.280003,-5.48E-10,,
,1.282003,-5.52E-10,,
,1.284003,-5.56E-10,,
,1.286003,-5.61E-10,,
,1.288003,-5.66E-10,,
,1.290003,-5.71E-10,,
,1.292003,-5.75E-10,,
,1.294003,-5.79E-10,,
,1.296003,-5.83E-10,,
,1.298003,-5.87E-10,,
,1.300003,-5.92E-10,,
,1.302003,-5.96E-10,,
,1.304003,-6.01E-10,,
,1.306003,-6.06E-10,,
,1.308003,-6.10E-10,,
,1.310003,-6.15E-10,,
,1.312003,-6.19E-10,,
,1.314003,-6.23E-10,,
,1.316003,-6.26E-10,,
,1.318003,-6.30E-10,,
,1.320003,-6.35E-10,,
,1.322003,-6.40E-10,,
,1.324003,-6.44E-10,,
,1.326003,-6.49E-10,,
,1.328003,-6.53E-10,,
,1.330003,-6.56E-10,,
,1.332003,-6.60E-10,,
,1.334003,-6.63E-10,,
,1.336003,-6.67E-10,,
,1.338003,-6.72E-10,,
,1.340003,-6.76E-10,,
,1.342003,-6.79E-10,,
,1.344003,-6.82E-10,,
,1.346003,-6.85E-10,,
,1.348003,-6.87E-10,,
,1.350003,-6.90E-10,,
,1.352003,-6.93E-10,,
,1.354003,-6.96E-10,,
,1.356003,-6.99E-10,,
,1.358003,-7.02E-10,,
,1.360003,-7.04E-10,,
,1.362003,-7.06E-10,,
,1.364003,-7.08E-10,,
,1.366003,-7.09E-10,,
,1.368003,-7.11E-10,,
,1.370003,-7.13E-10,,
,1.372003,-7.15E-10,,
,1.374003,-7.17E-10,,
,1.376003,-7.18E-10,,
,1.378003,-7.18E-10,,
,1.380003,-7.19E-10,,
,1.382003,-7.19E-10,,
,1.384003,-7.18E-10,,
,1.386003,-7.18E-10,,
,1.388003,-7.17E-10,,
,1.390003,-7.17E-10,,
,1.392003,-7.16E-10,,
,1.394003,-7.14E-10,,
,1.396003,-7.12E-10,,
,1.398003,-7.08E-10,,
,1.400003,-7.05E-10,,
,1.402003,-7.01E-10,,
,1.404003,-6.98E-10,,
,1.406003,-6.94E-10,,
,1.408003,-6.89E-10,,
,1.410003,-6.84E-10,,
,1.412003,-6.78E-10,,
,1.414003,-6.71E-10,,
,1.416003,-6.64E-10,,
,1.418003,-6.56E-10,,
,1.420003,-6.49E-10,,
,1.422003,-6.41E-10,,
,1.424003,-6.33E-10,,
,1.426003,-6.24E-10,,
,1.428003,-6.15E-10,,
,1.430003,-6.05E-10,,
,1.432003,-5.95E-10,,
,1.434003,-5.84E-10,,
,1.436003,-5.74E-10,,
,1.438003,-5.64E-10,,
,1.440003,-5.54E-10,,
,1.442003,-5.44E-10,,
,1.444003,-5.33E-10,,
,1.446003,-5.22E-10,,
,1.448003,-5.11E-10,,
,1.450003,-5.00E-10,,
,1.452003,-4.89E-10,,
,1.454003,-4.79E-10,,
,1.456003,-4.69E-10,,
,1.458003,-4.59E-10,,
,1.460003,-4.49E-10,,
,1.462003,-4.39E-10,,
,1.464003,-4.29E-10,,
,1.466003,-4.19E-10,,
,1.468003,-4.09E-10,,
,1.470003,-4.01E-10,,
,1.472003,-3.93E-10,,
,1.474003,-3.85E-10,,
,1.476003,-3.77E-10,,
,1.478003,-3.68E-10,,
,1.480003,-3.61E-10,,
,1.482003,-3.53E-10,,
,1.484003,-3.46E-10,,
,1.486003,-3.40E-10,,
,1.488003,-3.34E-10,,
,1.490003,-3.28E-10,,
,1.492003,-3.22E-10,,
,1.494003,-3.17E-10,,
,1.496003,-3.11E-10,,
,1.498003,-3.06E-10,,
,1.500003,-3.01E-10,,
,1.502003,-2.97E-10,,
,1.504003,-2.93E-10,,
,1.506003,-2.89E-10,,
,1.508003,-2.85E-10,,
,1.510003,-2.82E-10,,
,1.512003,-2.78E-10,,
,1.514003,-2.75E-10,,
,1.516003,-2.72E-10,,
,1.518003,-2.69E-10,,
,1.520003,-2.66E-10,,
,1.522003,-2.65E-10,,
,1.524003,-2.63E-10,,
,1.526003,-2.61E-10,,
,1.528003,-2.60E-10,,
,1.530003,-2.58E-10,,
,1.532003,-2.57E-10,,
,1.534003,-2.56E-10,,
,1.536003,-2.55E-10,,
,1.538003,-2.56E-10,,
,1.540003,-2.56E-10,,
,1.542003,-2.56E-10,,
,1.544003,-2.56E-10,,
,1.546003,-2.57E-10,,
,1.548003,-2.57E-10,,
,1.550003,-2.58E-10,,
,1.552003,-2.59E-10,,
,1.554003,-2.60E-10,,
,1.556003,-2.62E-10,,
,1.558003,-2.64E-10,,
,1.560003,-2.66E-10,,
,1.562003,-2.68E-10,,
,1.564003,-2.70E-10,,
,1.566003,-2.72E-10,,
,1.568003,-2.74E-10,,
,1.570003,-2.77E-10,,
,1.572003,-2.80E-10,,
,1.574003,-2.83E-10,,
,1.576003,-2.86E-10,,
,1.578003,-2.90E-10,,
,1.580003,-2.93E-10,,
,1.582003,-2.96E-10,,
,1.584003,-2.99E-10,,
,1.586003,-3.03E-10,,
,1.588003,-3.08E-10,,
,1.590003,-3.12E-10,,
,1.592003,-3.17E-10,,
,1.594003,-3.21E-10,,
,1.596003,-3.25E-10,,
,1.598003,-3.30E-10,,
,1.600003,-3.34E-10,,
,1.602003,-3.39E-10,,
,1.604003,-3.45E-10,,
,1.606003,-3.51E-10,,
,1.608003,-3.57E-10,,
,1.610003,-3.63E-10,,
,1.612003,-3.68E-10,,
,1.614003,-3.74E-10,,
,1.616003,-3.80E-10,,
,1.618003,-3.86E-10,,
,1.620003,-3.93E-10,,
,1.622003,-4.00E-10,,
,1.624003,-4.08E-10,,
,1.626003,-4.15E-10,,
,1.628003,-4.22E-10,,
,1.630003,-4.29E-10,,
,1.632003,-4.36E-10,,
,1.634003,-4.44E-10,,
,1.636003,-4.52E-10,,
,1.638003,-4.61E-10,,
,1.640003,-4.69E-10,,
,1.642003,-4.78E-10,,
,1.644003,-4.87E-10,,
,1.646003,-4.95E-10,,
,1.648003,-5.04E-10,,
,1.650003,-5.13E-10,,
,1.652003,-5.22E-10,,
,1.654003,-5.32E-10,,
,1.656003,-5.42E-10,,
,1.658003,-5.52E-10,,
,1.660003,-5.61E-10,,
,1.662003,-5.71E-10,,
,1.664003,-5.80E-10,,
,1.666003,-5.90E-10,,
,1.668003,-6.00E-10,,
,1.670003,-6.11E-10,,
,1.672003,-6.21E-10,,
,1.674003,-6.32E-10,,
,1.676003,-6.42E-10,,
,1.678003,-6.52E-10,,
,1.680003,-6.63E-10,,
,1.682003,-6.73E-10,,
,1.684003,-6.83E-10,,
,1.686003,-6.93E-10,,
,1.688003,-7.04E-10,,
,1.690003,-7.15E-10,,
,1.692003,-7.26E-10,,
,1.694003,-7.37E-10,,
,1.696003,-7.48E-10,,
,1.698003,-7.59E-10,,
,1.700003,-7.69E-10,,
,1.702003,-7.81E-10,,
,1.704003,-7.92E-10,,
,1.706003,-8.04E-10,,
,1.708003,-8.15E-10,,
,1.710003,-8.27E-10,,
,1.712003,-8.38E-10,,
,1.714003,-8.49E-10,,
,1.716003,-8.60E-10,,
,1.718003,-8.71E-10,,
,1.720003,-8.83E-10,,
,1.722003,-8.95E-10,,
,1.724003,-9.07E-10,,
,1.726003,-9.19E-10,,
,1.728003,-9.30E-10,,
,1.730003,-9.42E-10,,
,1.732003,-9.54E-10,,
,1.734003,-9.65E-10,,
,1.736003,-9.78E-10,,
,1.738003,-9.90E-10,,
,1.740003,-1.00E-09,,
,1.742003,-1.02E-09,,
,1.744003,-1.03E-09,,
,1.746003,-1.04E-09,,
,1.748003,-1.05E-09,,
,1.750003,-1.06E-09,,
,1.752003,-1.08E-09,,
,1.754003,-1.09E-09,,
,1.756003,-1.10E-09,,
,1.758003,-1.12E-09,,
,1.760003,-1.13E-09,,
,1.762003,-1.15E-09,,
,1.764003,-1.16E-09,,
,1.766003,-1.17E-09,,
,1.768003,-1.19E-09,,
,1.770003,-1.20E-09,,
,1.772003,-1.22E-09,,
,1.774003,-1.23E-09,,
,1.776003,-1.25E-09,,
,1.778003,-1.26E-09,,
,1.780003,-1.28E-09,,
,1.782003,-1.30E-09,,
,1.784003,-1.31E-09,,
,1.786003,-1.33E-09,,
,1.788003,-1.34E-09,,
,1.790003,-1.36E-09,,
,1.792003,-1.38E-09,,
,1.794003,-1.40E-09,,
,1.796003,-1.41E-09,,
,1.798003,-1.43E-09,,
,1.800003,-1.44E-09,,
,1.802003,-1.46E-09,,
,1.804003,-1.48E-09,,
,1.806003,-1.50E-09,,
,1.808003,-1.51E-09,,
,1.810003,-1.53E-09,,
,1.812003,-1.55E-09,,
,1.814003,-1.56E-09,,
,1.816003,-1.58E-09,,
,1.818003,-1.60E-09,,
,1.820003,-1.61E-09,,
,1.822003,-1.63E-09,,
,1.824003,-1.64E-09,,
,1.826003,-1.66E-09,,
,1.828003,-1.68E-09,,
,1.830003,-1.69E-09,,
,1.832003,-1.71E-09,,
,1.834003,-1.72E-09,,
,1.836003,-1.74E-09,,
,1.838003,-1.76E-09,,
,1.840003,-1.77E-09,,
,1.842003,-1.78E-09,,
,1.844003,-1.80E-09,,
,1.846003,-1.81E-09,,
,1.848003,-1.83E-09,,
,1.850003,-1.84E-09,,
,1.852003,-1.85E-09,,
,1.854003,-1.86E-09,,
,1.856003,-1.87E-09,,
,1.858003,-1.88E-09,,
,1.860003,-1.89E-09,,
,1.862003,-1.89E-09,,
,1.864003,-1.90E-09,,
,1.866003,-1.91E-09,,
,1.868003,-1.91E-09,,
,1.870003,-1.91E-09,,
,1.872003,-1.91E-09,,
,1.874003,-1.90E-09,,
,1.876003,-1.85E-09,,
,1.878003,-1.77E-09,,
,1.880003,-1.67E-09,,
,1.882003,-1.55E-09,,
,1.884003,-1.43E-09,,
,1.886003,-1.32E-09,,
,1.888003,-1.20E-09,,
,1.890003,-1.08E-09,,
,1.892003,-9.70E-10,,
,1.894003,-8.59E-10,,
,1.896003,-7.50E-10,,
,1.898003,-6.45E-10,,
,1.900003,-5.43E-10,,
,1.902003,-4.45E-10,,
,1.904003,-3.52E-10,,
,1.906003,-2.63E-10,,
,1.908003,-1.78E-10,,
,1.910003,-9.83E-11,,
,1.912003,-2.22E-11,,
,1.914003,4.93E-11,,
,1.916003,1.16E-10,,
,1.918003,1.78E-10,,
,1.920003,2.34E-10,,
,1.922003,2.87E-10,,
,1.924003,3.34E-10,,
,1.926003,3.78E-10,,
,1.928003,4.18E-10,,
,1.930003,4.53E-10,,
,1.932003,4.85E-10,,
,1.934003,5.13E-10,,
,1.936003,5.37E-10,,
,1.938003,5.57E-10,,
,1.940003,5.74E-10,,
,1.942003,5.88E-10,,
,1.944003,6.00E-10,,
,1.946003,6.09E-10,,
,1.948003,6.15E-10,,
,1.950003,6.19E-10,,
,1.952003,6.21E-10,,
,1.954003,6.20E-10,,
,1.956003,6.18E-10,,
,1.958003,6.13E-10,,
,1.960003,6.08E-10,,
,1.962003,6.01E-10,,
,1.964003,5.93E-10,,
,1.966003,5.83E-10,,
,1.968003,5.73E-10,,
,1.970003,5.61E-10,,
,1.972003,5.48E-10,,
,1.974003,5.34E-10,,
,1.976003,5.20E-10,,
,1.978003,5.05E-10,,
,1.980003,4.90E-10,,
,1.982003,4.75E-10,,
,1.984003,4.59E-10,,
,1.986003,4.43E-10,,
,1.988003,4.27E-10,,
,1.990003,4.10E-10,,
,1.992003,3.93E-10,,
,1.994003,3.77E-10,,
,1.996003,3.60E-10,,
,1.998003,3.44E-10,,
,2.000003,3.28E-10,,
,2.002003,3.11E-10,,
,2.004003,2.94E-10,,
,2.006003,2.78E-10,,
,2.008003,2.61E-10,,
,2.010003,2.45E-10,,
,2.012003,2.29E-10,,
,2.014003,2.12E-10,,
,2.016003,1.96E-10,,
,2.018003,1.80E-10,,
,2.020003,1.64E-10,,
,2.022003,1.48E-10,,
,2.024003,1.32E-10,,
,2.026003,1.16E-10,,
,2.028003,1.01E-10,,
,2.030003,8.58E-11,,
,2.032003,7.06E-11,,
,2.034003,5.56E-11,,
,2.036003,4.07E-11,,
,2.038003,2.58E-11,,
,2.040003,1.09E-11,,
,2.042003,-3.68E-12,,
,2.044003,-1.80E-11,,
,2.046003,-3.18E-11,,
,2.048003,-4.58E-11,,
,2.050003,-5.97E-11,,
,2.052003,-7.40E-11,,
,2.054003,-8.84E-11,,
,2.056003,-1.03E-10,,
,2.058003,-1.17E-10,,
,2.060003,-1.32E-10,,
,2.062003,-1.46E-10,,
,2.064003,-1.60E-10,,
,2.066003,-1.74E-10,,
,2.068003,-1.89E-10,,
,2.070003,-2.04E-10,,
,2.072003,-2.19E-10,,
,2.074003,-2.34E-10,,
,2.076003,-2.50E-10,,
,2.078003,-2.65E-10,,
,2.080003,-2.80E-10,,
,2.082003,-2.95E-10,,
,2.084003,-3.11E-10,,
,2.086003,-3.26E-10,,
,2.088003,-3.42E-10,,
,2.090003,-3.58E-10,,
,2.092003,-3.73E-10,,
,2.094003,-3.88E-10,,
,2.096003,-4.03E-10,,
,2.098003,-4.17E-10,,
,2.100003,-4.31E-10,,
,2.102003,-4.45E-10,,
,2.104003,-4.60E-10,,
,2.106003,-4.73E-10,,
,2.108003,-4.86E-10,,
,2.110003,-4.98E-10,,
,2.112003,-5.09E-10,,
,2.114003,-5.19E-10,,
,2.116003,-5.28E-10,,
,2.118003,-5.37E-10,,
,2.120003,-5.45E-10,,
,2.122003,-5.52E-10,,
,2.124003,-5.59E-10,,
,2.126003,-5.64E-10,,
,2.128003,-5.68E-10,,
,2.130003,-5.71E-10,,
,2.132003,-5.73E-10,,
,2.134003,-5.74E-10,,
,2.136003,-5.75E-10,,
,2.138003,-5.75E-10,,
,2.140003,-5.74E-10,,
,2.142003,-5.72E-10,,
,2.144003,-5.69E-10,,
,2.146003,-5.66E-10,,
,2.148003,-5.61E-10,,
,2.150003,-5.56E-10,,
,2.152003,-5.50E-10,,
,2.154003,-5.43E-10,,
,2.156003,-5.36E-10,,
,2.158003,-5.29E-10,,
,2.160003,-5.21E-10,,
,2.162003,-5.12E-10,,
,2.164003,-5.02E-10,,
,2.166003,-4.93E-10,,
,2.168003,-4.83E-10,,
,2.170003,-4.73E-10,,
,2.172003,-4.63E-10,,
,2.174003,-4.53E-10,,
,2.176003,-4.42E-10,,
,2.178003,-4.31E-10,,
,2.180003,-4.19E-10,,
,2.182003,-4.08E-10,,
,2.184003,-3.97E-10,,
,2.186003,-3.86E-10,,
,2.188003,-3.75E-10,,
,2.190003,-3.64E-10,,
,2.192003,-3.53E-10,,
,2.194003,-3.42E-10,,
,2.196003,-3.31E-10,,
,2.198003,-3.20E-10,,
,2.200003,-3.09E-10,,
,2.202003,-2.98E-10,,
,2.204003,-2.88E-10,,
,2.206003,-2.78E-10,,
,2.208003,-2.68E-10,,
,2.210003,-2.59E-10,,
,2.212003,-2.49E-10,,
,2.214003,-2.40E-10,,
,2.216003,-2.31E-10,,
,2.218003,-2.23E-10,,
,2.220003,-2.15E-10,,
,2.222003,-2.08E-10,,
,2.224003,-2.01E-10,,
,2.226003,-1.94E-10,,
,2.228003,-1.87E-10,,
,2.230003,-1.81E-10,,
,2.232003,-1.75E-10,,
,2.234003,-1.70E-10,,
,2.236003,-1.65E-10,,
,2.238003,-1.61E-10,,
,2.240003,-1.58E-10,,
,2.242003,-1.55E-10,,
,2.244003,-1.53E-10,,
,2.246003,-1.51E-10,,
,2.248003,-1.49E-10,,
,2.250003,-1.49E-10,,
,2.252003,-1.49E-10,,
,2.254003,-1.49E-10,,
,2.256003,-1.51E-10,,
,2.258003,-1.52E-10,,
,2.260003,-1.54E-10,,
,2.262003,-1.56E-10,,
,2.264003,-1.58E-10,,
,2.266003,-1.60E-10,,
,2.268003,-1.63E-10,,
,2.270003,-1.66E-10,,
,2.272003,-1.69E-10,,
,2.274003,-1.72E-10,,
,2.276003,-1.75E-10,,
,2.278003,-1.77E-10,,
,2.280003,-1.78E-10,,
,2.282003,-1.79E-10,,
,2.284003,-1.80E-10,,
,2.286003,-1.81E-10,,
,2.288003,-1.82E-10,,
,2.290003,-1.82E-10,,
,2.292003,-1.81E-10,,
,2.294003,-1.80E-10,,
,2.296003,-1.77E-10,,
,2.298003,-1.74E-10,,
,2.300003,-1.70E-10,,
,2.302003,-1.66E-10,,
,2.304003,-1.61E-10,,
,2.306003,-1.56E-10,,
,2.308003,-1.50E-10,,
,2.310003,-1.43E-10,,
,2.312003,-1.36E-10,,
,2.314003,-1.27E-10,,
,2.316003,-1.19E-10,,
,2.318003,-1.10E-10,,
,2.320003,-1.01E-10,,
,2.322003,-9.22E-11,,
,2.324003,-8.32E-11,,
,2.326003,-7.40E-11,,
,2.328003,-6.41E-11,,
,2.330003,-5.41E-11,,
,2.332003,-4.40E-11,,
,2.334003,-3.42E-11,,
,2.336003,-2.45E-11,,
,2.338003,-1.51E-11,,
,2.340003,-5.29E-12,,
,2.342003,4.91E-12,,
,2.344003,1.58E-11,,
,2.346003,2.67E-11,,
,2.348003,3.82E-11,,
,2.350003,4.98E-11,,
,2.352003,6.15E-11,,
,2.354003,7.30E-11,,
,2.356003,8.45E-11,,
,2.358003,9.62E-11,,
,2.360003,1.08E-10,,
,2.362003,1.21E-10,,
,2.364003,1.33E-10,,
,2.366003,1.46E-10,,
,2.368003,1.58E-10,,
,2.370003,1.70E-10,,
,2.372003,1.82E-10,,
,2.374003,1.94E-10,,
,2.376003,2.05E-10,,
,2.378003,2.17E-10,,
,2.380003,2.29E-10,,
,2.382003,2.40E-10,,
,2.384003,2.52E-10,,
,2.386003,2.63E-10,,
,2.388003,2.73E-10,,
,2.390003,2.83E-10,,
,2.392003,2.93E-10,,
,2.394003,3.04E-10,,
,2.396003,3.14E-10,,
,2.398003,3.24E-10,,
,2.400003,3.33E-10,,
,2.402003,3.42E-10,,
,2.404003,3.50E-10,,
,2.406003,3.58E-10,,
,2.408003,3.65E-10,,
,2.410003,3.72E-10,,
,2.412003,3.80E-10,,
,2.414003,3.87E-10,,
,2.416003,3.94E-10,,
,2.418003,4.01E-10,,
,2.420003,4.06E-10,,
,2.422003,4.12E-10,,
,2.424003,4.17E-10,,
,2.426003,4.22E-10,,
,2.428003,4.27E-10,,
,2.430003,4.32E-10,,
,2.432003,4.37E-10,,
,2.434003,4.41E-10,,
,2.436003,4.44E-10,,
,2.438003,4.47E-10,,
,2.440003,4.50E-10,,
,2.442003,4.52E-10,,
,2.444003,4.55E-10,,
,2.446003,4.57E-10,,
,2.448003,4.59E-10,,
,2.450003,4.60E-10,,
,2.452003,4.61E-10,,
,2.454003,4.62E-10,,
,2.456003,4.62E-10,,
,2.458003,4.62E-10,,
,2.460003,4.63E-10,,
,2.462003,4.63E-10,,
,2.464003,4.63E-10,,
,2.466003,4.63E-10,,
,2.468003,4.63E-10,,
,2.470003,4.62E-10,,
,2.472003,4.61E-10,,
,2.474003,4.60E-10,,
,2.476003,4.59E-10,,
,2.478003,4.58E-10,,
,2.480003,4.58E-10,,
,2.482003,4.57E-10,,
,2.484003,4.56E-10,,
,2.486003,4.55E-10,,
,2.488003,4.53E-10,,
,2.490003,4.51E-10,,
,2.492003,4.48E-10,,
,2.494003,4.46E-10,,
,2.496003,4.43E-10,,
,2.498003,4.40E-10,,
,2.500003,4.37E-10,,
,2.502003,4.33E-10,,
,2.504003,4.28E-10,,
,2.506003,4.22E-10,,
,2.508003,4.16E-10,,
,2.510003,4.09E-10,,
,2.512003,4.02E-10,,
,2.514003,3.95E-10,,
,2.516003,3.87E-10,,
,2.518003,3.78E-10,,
,2.520003,3.68E-10,,
,2.522003,3.57E-10,,
,2.524003,3.46E-10,,
,2.526003,3.34E-10,,
,2.528003,3.22E-10,,
,2.530003,3.10E-10,,
,2.532003,2.97E-10,,
,2.534003,2.83E-10,,
,2.536003,2.69E-10,,
,2.538003,2.53E-10,,
,2.540003,2.38E-10,,
,2.542003,2.22E-10,,
,2.544003,2.06E-10,,
,2.546003,1.90E-10,,
,2.548003,1.73E-10,,
,2.550003,1.56E-10,,
,2.552003,1.39E-10,,
,2.554003,1.21E-10,,
,2.556003,1.03E-10,,
,2.558003,8.53E-11,,
,2.560003,6.74E-11,,
,2.562003,5.00E-11,,
,2.564003,3.28E-11,,
,2.566003,1.56E-11,,
,2.568003,-1.85E-12,,
,2.570003,-1.97E-11,,
,2.572003,-3.78E-11,,
,2.574003,-5.55E-11,,
,2.576003,-7.31E-11,,
,2.578003,-9.02E-11,,
,2.580003,-1.07E-10,,
,2.582003,-1.24E-10,,
,2.584003,-1.41E-10,,
,2.586003,-1.58E-10,,
,2.588003,-1.76E-10,,
,2.590003,-1.93E-10,,
,2.592003,-2.11E-10,,
,2.594003,-2.28E-10,,
,2.596003,-2.45E-10,,
,2.598003,-2.61E-10,,
,2.600003,-2.78E-10,,
,2.602003,-2.95E-10,,
,2.604003,-3.13E-10,,
,2.606003,-3.30E-10,,
,2.608003,-3.48E-10,,
,2.610003,-3.65E-10,,
,2.612003,-3.82E-10,,
,2.614003,-3.98E-10,,
,2.616003,-4.15E-10,,
,2.618003,-4.31E-10,,
,2.620003,-4.47E-10,,
,2.622003,-4.64E-10,,
,2.624003,-4.79E-10,,
,2.626003,-4.95E-10,,
,2.628003,-5.09E-10,,
,2.630003,-5.23E-10,,
,2.632003,-5.37E-10,,
,2.634003,-5.50E-10,,
,2.636003,-5.63E-10,,
,2.638003,-5.76E-10,,
,2.640003,-5.88E-10,,
,2.642003,-6.00E-10,,
,2.644003,-6.11E-10,,
,2.646003,-6.21E-10,,
,2.648003,-6.31E-10,,
,2.650003,-6.40E-10,,
,2.652003,-6.48E-10,,
,2.654003,-6.56E-10,,
,2.656003,-6.65E-10,,
,2.658003,-6.72E-10,,
,2.660003,-6.79E-10,,
,2.662003,-6.84E-10,,
,2.664003,-6.90E-10,,
,2.666003,-6.95E-10,,
,2.668003,-7.00E-10,,
,2.670003,-7.05E-10,,
,2.672003,-7.10E-10,,
,2.674003,-7.15E-10,,
,2.676003,-7.19E-10,,
,2.678003,-7.23E-10,,
,2.680003,-7.26E-10,,
,2.682003,-7.29E-10,,
,2.684003,-7.31E-10,,
,2.686003,-7.34E-10,,
,2.688003,-7.37E-10,,
,2.690003,-7.40E-10,,
,2.692003,-7.43E-10,,
,2.694003,-7.45E-10,,
,2.696003,-7.46E-10,,
,2.698003,-7.48E-10,,
,2.700003,-7.49E-10,,
,2.702003,-7.50E-10,,
,2.704003,-7.51E-10,,
,2.706003,-7.52E-10,,
,2.708003,-7.52E-10,,
,2.710003,-7.52E-10,,
,2.712003,-7.51E-10,,
,2.714003,-7.49E-10,,
,2.716003,-7.48E-10,,
,2.718003,-7.46E-10,,
,2.720003,-7.44E-10,,
,2.722003,-7.42E-10,,
,2.724003,-7.39E-10,,
,2.726003,-7.36E-10,,
,2.728003,-7.32E-10,,
,2.730003,-7.27E-10,,
,2.732003,-7.22E-10,,
,2.734003,-7.17E-10,,
,2.736003,-7.12E-10,,
,2.738003,-7.07E-10,,
,2.740003,-7.01E-10,,
,2.742003,-6.95E-10,,
,2.744003,-6.88E-10,,
,2.746003,-6.81E-10,,
,2.748003,-6.73E-10,,
,2.750003,-6.65E-10,,
,2.752003,-6.57E-10,,
,2.754003,-6.49E-10,,
,2.756003,-6.41E-10,,
,2.758003,-6.32E-10,,
,2.760003,-6.23E-10,,
,2.762003,-6.13E-10,,
,2.764003,-6.03E-10,,
,2.766003,-5.93E-10,,
,2.768003,-5.82E-10,,
,2.770003,-5.72E-10,,
,2.772003,-5.62E-10,,
,2.774003,-5.51E-10,,
,2.776003,-5.40E-10,,
,2.778003,-5.29E-10,,
,2.780003,-5.17E-10,,
,2.782003,-5.05E-10,,
,2.784003,-4.93E-10,,
,2.786003,-4.81E-10,,
,2.788003,-4.69E-10,,
,2.790003,-4.58E-10,,
,2.792003,-4.46E-10,,
,2.794003,-4.33E-10,,
,2.796003,-4.20E-10,,
,2.798003,-4.07E-10,,
,2.800003,-3.94E-10,,
,2.802003,-3.81E-10,,
,2.804003,-3.68E-10,,
,2.806003,-3.56E-10,,
,2.808003,-3.43E-10,,
,2.810003,-3.30E-10,,
,2.812003,-3.17E-10,,
,2.814003,-3.04E-10,,
,2.816003,-2.91E-10,,
,2.818003,-2.78E-10,,
,2.820003,-2.65E-10,,
,2.822003,-2.52E-10,,
,2.824003,-2.40E-10,,
,2.826003,-2.28E-10,,
,2.828003,-2.15E-10,,
,2.830003,-2.02E-10,,
,2.832003,-1.90E-10,,
,2.834003,-1.78E-10,,
,2.836003,-1.67E-10,,
,2.838003,-1.56E-10,,
,2.840003,-1.46E-10,,
,2.842003,-1.36E-10,,
,2.844003,-1.25E-10,,
,2.846003,-1.15E-10,,
,2.848003,-1.05E-10,,
,2.850003,-9.58E-11,,
,2.852003,-8.70E-11,,
,2.854003,-7.87E-11,,
,2.856003,-7.12E-11,,
,2.858003,-6.38E-11,,
,2.860003,-5.67E-11,,
,2.862003,-4.95E-11,,
,2.864003,-4.28E-11,,
,2.866003,-3.62E-11,,
,2.868003,-3.04E-11,,
,2.870003,-2.51E-11,,
,2.872003,-2.05E-11,,
,2.874003,-1.67E-11,,
,2.876003,-1.29E-11,,
,2.878003,-9.26E-12,,
,2.880003,-5.29E-12,,
,2.882003,-1.64E-12,,
,2.884003,1.37E-12,,
,2.886003,3.52E-12,,
,2.888003,4.81E-12,,
,2.890003,5.77E-12,,
,2.892003,6.42E-12,,
,2.894003,7.27E-12,,
,2.896003,7.92E-12,,
,2.898003,8.46E-12,,
,2.900003,8.13E-12,,
,2.902003,7.27E-12,,
,2.904003,5.77E-12,,
,2.906003,3.62E-12,,
,2.908003,1.48E-12,,
,2.910003,-8.84E-13,,
,2.912003,-2.60E-12,,
,2.914003,-4.86E-12,,
,2.916003,-7.11E-12,,
,2.918003,-9.90E-12,,
,2.920003,-1.32E-11,,
,2.922003,-1.72E-11,,
,2.924003,-2.14E-11,,
,2.926003,-2.55E-11,,
,2.928003,-2.93E-11,,
,2.930003,-3.33E-11,,
,2.932003,-3.73E-11,,
,2.934003,-4.14E-11,,
,2.936003,-4.63E-11,,
,2.938003,-5.14E-11,,
,2.940003,-5.74E-11,,
,2.942003,-6.26E-11,,
,2.944003,-6.78E-11,,
,2.946003,-7.25E-11,,
,2.948003,-7.72E-11,,
,2.950003,-8.23E-11,,
,2.952003,-8.74E-11,,
,2.954003,-9.32E-11,,
,2.956003,-9.89E-11,,
,2.958003,-1.05E-10,,
,2.960003,-1.10E-10,,
,2.962003,-1.15E-10,,
,2.964003,-1.20E-10,,
,2.966003,-1.25E-10,,
,2.968003,-1.31E-10,,
,2.970003,-1.36E-10,,
,2.972003,-1.42E-10,,
,2.974003,-1.47E-10,,
,2.976003,-1.53E-10,,
,2.978003,-1.58E-10,,
,2.980003,-1.62E-10,,
,2.982003,-1.66E-10,,
,2.984003,-1.71E-10,,
,2.986003,-1.76E-10,,
,2.988003,-1.81E-10,,
,2.990003,-1.87E-10,,
,2.992003,-1.91E-10,,
,2.994003,-1.96E-10,,
,2.996003,-2.00E-10,,
,2.998003,-2.04E-10,,
,3.000003,-2.08E-10,,
,3.002003,-2.12E-10,,
,3.004003,-2.17E-10,,
,3.006003,-2.21E-10,,
,3.008003,-2.25E-10,,
,3.010003,-2.29E-10,,
,3.012003,-2.33E-10,,
,3.014003,-2.36E-10,,
,3.016003,-2.39E-10,,
,3.018003,-2.42E-10,,
,3.020003,-2.45E-10,,
,3.022003,-2.48E-10,,
,3.024003,-2.51E-10,,
,3.026003,-2.53E-10,,
,3.028003,-2.56E-10,,
,3.030003,-2.57E-10,,
,3.032003,-2.59E-10,,
,3.034003,-2.60E-10,,
,3.036003,-2.62E-10,,
,3.038003,-2.63E-10,,
,3.040003,-2.65E-10,,
,3.042003,-2.65E-10,,
,3.044003,-2.66E-10,,
,3.046003,-2.65E-10,,
,3.048003,-2.65E-10,,
,3.050003,-2.64E-10,,
,3.052003,-2.64E-10,,
,3.054003,-2.63E-10,,
,3.056003,-2.63E-10,,
,3.058003,-2.62E-10,,
,3.060003,-2.61E-10,,
,3.062003,-2.59E-10,,
,3.064003,-2.57E-10,,
,3.066003,-2.54E-10,,
,3.068003,-2.52E-10,,
,3.070003,-2.49E-10,,
,3.072003,-2.47E-10,,
,3.074003,-2.44E-10,,
,3.076003,-2.41E-10,,
,3.078003,-2.37E-10,,
,3.080003,-2.33E-10,,
,3.082003,-2.28E-10,,
,3.084003,-2.23E-10,,
,3.086003,-2.19E-10,,
,3.088003,-2.14E-10,,
,3.090003,-2.10E-10,,
,3.092003,-2.05E-10,,
,3.094003,-1.99E-10,,
,3.096003,-1.93E-10,,
,3.098003,-1.87E-10,,
,3.100003,-1.80E-10,,
,3.102003,-1.74E-10,,
,3.104003,-1.68E-10,,
,3.106003,-1.63E-10,,
,3.108003,-1.57E-10,,
,3.110003,-1.51E-10,,
,3.112003,-1.44E-10,,
,3.114003,-1.38E-10,,
,3.116003,-1.31E-10,,
,3.118003,-1.25E-10,,
,3.120003,-1.20E-10,,
,3.122003,-1.14E-10,,
,3.124003,-1.09E-10,,
,3.126003,-1.03E-10,,
,3.128003,-9.74E-11,,
,3.130003,-9.19E-11,,
,3.132003,-8.67E-11,,
,3.134003,-8.17E-11,,
,3.136003,-7.70E-11,,
,3.138003,-7.29E-11,,
,3.140003,-6.93E-11,,
,3.142003,-6.60E-11,,
,3.144003,-6.28E-11,,
,3.146003,-5.94E-11,,
,3.148003,-5.60E-11,,
,3.150003,-5.30E-11,,
,3.152003,-5.06E-11,,
,3.154003,-4.89E-11,,
,3.156003,-4.76E-11,,
,3.158003,-4.64E-11,,
,3.160003,-4.54E-11,,
,3.162003,-4.43E-11,,
,3.164003,-4.33E-11,,
,3.166003,-4.24E-11,,
,3.168003,-4.21E-11,,
,3.170003,-4.24E-11,,
,3.172003,-4.33E-11,,
,3.174003,-4.43E-11,,
,3.176003,-4.51E-11,,
,3.178003,-4.60E-11,,
,3.180003,-4.68E-11,,
,3.182003,-4.78E-11,,
,3.184003,-4.89E-11,,
,3.186003,-5.07E-11,,
,3.188003,-5.28E-11,,
,3.190003,-5.53E-11,,
,3.192003,-5.78E-11,,
,3.194003,-6.01E-11,,
,3.196003,-6.27E-11,,
,3.198003,-6.50E-11,,
,3.200003,-6.78E-11,,
,3.202003,-7.10E-11,,
,3.204003,-7.50E-11,,
,3.206003,-7.90E-11,,
,3.208003,-8.31E-11,,
,3.210003,-8.72E-11,,
,3.212003,-9.12E-11,,
,3.214003,-9.50E-11,,
,3.216003,-9.91E-11,,
,3.218003,-1.04E-10,,
,3.220003,-1.09E-10,,
,3.222003,-1.14E-10,,
,3.224003,-1.20E-10,,
,3.226003,-1.26E-10,,
,3.228003,-1.31E-10,,
,3.230003,-1.37E-10,,
,3.232003,-1.42E-10,,
,3.234003,-1.48E-10,,
,3.236003,-1.55E-10,,
,3.238003,-1.62E-10,,
,3.240003,-1.69E-10,,
,3.242003,-1.76E-10,,
,3.244003,-1.83E-10,,
,3.246003,-1.90E-10,,
,3.248003,-1.96E-10,,
,3.250003,-2.03E-10,,
,3.252003,-2.10E-10,,
,3.254003,-2.18E-10,,
,3.256003,-2.26E-10,,
,3.258003,-2.34E-10,,
,3.260003,-2.42E-10,,
,3.262003,-2.49E-10,,
,3.264003,-2.57E-10,,
,3.266003,-2.66E-10,,
,3.268003,-2.74E-10,,
,3.270003,-2.83E-10,,
,3.272003,-2.92E-10,,
,3.274003,-3.02E-10,,
,3.276003,-3.12E-10,,
,3.278003,-3.21E-10,,
,3.280003,-3.30E-10,,
,3.282003,-3.40E-10,,
,3.284003,-3.50E-10,,
,3.286003,-3.60E-10,,
,3.288003,-3.71E-10,,
,3.290003,-3.82E-10,,
,3.292003,-3.94E-10,,
,3.294003,-4.05E-10,,
,3.296003,-4.17E-10,,
,3.298003,-4.28E-10,,
,3.300003,-4.40E-10,,
,3.302003,-4.52E-10,,
,3.304003,-4.65E-10,,
,3.306003,-4.78E-10,,
,3.308003,-4.91E-10,,
,3.310003,-5.03E-10,,
,3.312003,-5.16E-10,,
,3.314003,-5.27E-10,,
,3.316003,-5.39E-10,,
,3.318003,-5.51E-10,,
,3.320003,-5.63E-10,,
,3.322003,-5.74E-10,,
,3.324003,-5.86E-10,,
,3.326003,-5.97E-10,,
,3.328003,-6.08E-10,,
,3.330003,-6.18E-10,,
,3.332003,-6.28E-10,,
,3.334003,-6.38E-10,,
,3.336003,-6.48E-10,,
,3.338003,-6.57E-10,,
,3.340003,-6.67E-10,,
,3.342003,-6.75E-10,,
,3.344003,-6.83E-10,,
,3.346003,-6.90E-10,,
,3.348003,-6.96E-10,,
,3.350003,-7.03E-10,,
,3.352003,-7.08E-10,,
,3.354003,-7.14E-10,,
,3.356003,-7.19E-10,,
,3.358003,-7.23E-10,,
,3.360003,-7.27E-10,,
,3.362003,-7.30E-10,,
,3.364003,-7.32E-10,,
,3.366003,-7.33E-10,,
,3.368003,-7.34E-10,,
,3.370003,-7.35E-10,,
,3.372003,-7.35E-10,,
,3.374003,-7.34E-10,,
,3.376003,-7.33E-10,,
,3.378003,-7.30E-10,,
,3.380003,-7.27E-10,,
,3.382003,-7.23E-10,,
,3.384003,-7.19E-10,,
,3.386003,-7.14E-10,,
,3.388003,-7.09E-10,,
,3.390003,-7.03E-10,,
,3.392003,-6.97E-10,,
,3.394003,-6.90E-10,,
,3.396003,-6.82E-10,,
,3.398003,-6.73E-10,,
,3.400003,-6.64E-10,,
,3.402003,-6.55E-10,,
,3.404003,-6.45E-10,,
,3.406003,-6.35E-10,,
,3.408003,-6.24E-10,,
,3.410003,-6.13E-10,,
,3.412003,-6.00E-10,,
,3.414003,-5.87E-10,,
,3.416003,-5.73E-10,,
,3.418003,-5.59E-10,,
,3.420003,-5.45E-10,,
,3.422003,-5.31E-10,,
,3.424003,-5.15E-10,,
,3.426003,-4.99E-10,,
,3.428003,-4.83E-10,,
,3.430003,-4.65E-10,,
,3.432003,-4.47E-10,,
,3.434003,-4.29E-10,,
,3.436003,-4.10E-10,,
,3.438003,-3.91E-10,,
,3.440003,-3.72E-10,,
,3.442003,-3.52E-10,,
,3.444003,-3.32E-10,,
,3.446003,-3.11E-10,,
,3.448003,-2.90E-10,,
,3.450003,-2.68E-10,,
,3.452003,-2.47E-10,,
,3.454003,-2.25E-10,,
,3.456003,-2.03E-10,,
,3.458003,-1.81E-10,,
,3.460003,-1.58E-10,,
,3.462003,-1.35E-10,,
,3.464003,-1.12E-10,,
,3.466003,-8.89E-11,,
,3.468003,-6.58E-11,,
,3.470003,-4.26E-11,,
,3.472003,-1.96E-11,,
,3.474003,3.95E-12,,
,3.476003,2.77E-11,,
,3.478003,5.17E-11,,
,3.480003,7.59E-11,,
,3.482003,1.01E-10,,
,3.484003,1.25E-10,,
,3.486003,1.50E-10,,
,3.488003,1.75E-10,,
,3.490003,2.00E-10,,
,3.492003,2.25E-10,,
,3.494003,2.51E-10,,
,3.496003,2.77E-10,,
,3.498003,3.03E-10,,
,3.500003,3.29E-10,,
,3.502003,3.55E-10,,
,3.504003,3.81E-10,,
,3.506003,4.07E-10,,
,3.508003,4.33E-10,,
,3.510003,4.59E-10,,
,3.512003,4.85E-10,,
,3.514003,5.12E-10,,
,3.516003,5.38E-10,,
,3.518003,5.63E-10,,
,3.520003,5.89E-10,,
,3.522003,6.14E-10,,
,3.524003,6.39E-10,,
,3.526003,6.64E-10,,
,3.528003,6.88E-10,,
,3.530003,7.12E-10,,
,3.532003,7.37E-10,,
,3.534003,7.60E-10,,
,3.536003,7.83E-10,,
,3.538003,8.05E-10,,
,3.540003,8.27E-10,,
,3.542003,8.49E-10,,
,3.544003,8.70E-10,,
,3.546003,8.91E-10,,
,3.548003,9.12E-10,,
,3.550003,9.32E-10,,
,3.552003,9.51E-10,,
,3.554003,9.70E-10,,
,3.556003,9.88E-10,,
,3.558003,1.01E-09,,
,3.560003,1.02E-09,,
,3.562003,1.04E-09,,
,3.564003,1.06E-09,,
,3.566003,1.07E-09,,
,3.568003,1.09E-09,,
,3.570003,1.10E-09,,
,3.572003,1.12E-09,,
,3.574003,1.13E-09,,
,3.576003,1.14E-09,,
,3.578003,1.16E-09,,
,3.580003,1.17E-09,,
,3.582003,1.18E-09,,
,3.584003,1.19E-09,,
,3.586003,1.20E-09,,
,3.588003,1.21E-09,,
,3.590003,1.22E-09,,
,3.592003,1.23E-09,,
,3.594003,1.24E-09,,
,3.596003,1.25E-09,,
,3.598003,1.26E-09,,
,3.600003,1.27E-09,,
,3.602003,1.28E-09,,
,3.604003,1.29E-09,,
,3.606003,1.30E-09,,
,3.608003,1.31E-09,,
,3.610003,1.32E-09,,
,3.612003,1.33E-09,,
,3.614003,1.34E-09,,
,3.616003,1.34E-09,,
,3.618003,1.35E-09,,
,3.620003,1.36E-09,,
,3.622003,1.37E-09,,
,3.624003,1.38E-09,,
,3.626003,1.39E-09,,
,3.628003,1.39E-09,,
,3.630003,1.40E-09,,
,3.632003,1.41E-09,,
,3.634003,1.42E-09,,
,3.636003,1.43E-09,,
,3.638003,1.44E-09,,
,3.640003,1.44E-09,,
,3.642003,1.45E-09,,
,3.644003,1.46E-09,,
,3.646003,1.47E-09,,
,3.648003,1.48E-09,,
,3.650003,1.49E-09,,
,3.652003,1.49E-09,,
,3.654003,1.50E-09,,
,3.656003,1.51E-09,,
,3.658003,1.53E-09,,
,3.660003,1.54E-09,,
,3.662003,1.56E-09,,
,3.664003,1.57E-09,,
,3.666003,1.59E-09,,
,3.668003,1.61E-09,,
,3.670003,1.64E-09,,
,3.672003,1.66E-09,,
,3.674003,1.68E-09,,
,3.676003,1.71E-09,,
,3.678003,1.73E-09,,
,3.680003,1.76E-09,,
,3.682003,1.78E-09,,
,3.684003,1.81E-09,,
,3.686003,1.83E-09,,
,3.688003,1.86E-09,,
,3.690003,1.88E-09,,
,3.692003,1.90E-09,,
,3.694003,1.93E-09,,
,3.696003,1.95E-09,,
,3.698003,1.97E-09,,
,3.700003,1.99E-09,,
,3.702003,2.01E-09,,
,3.704003,2.03E-09,,
,3.706003,2.05E-09,,
,3.708003,2.07E-09,,
,3.710003,2.08E-09,,
,3.712003,2.10E-09,,
,3.714003,2.11E-09,,
,3.716003,2.13E-09,,
,3.718003,2.14E-09,,
,3.720003,2.15E-09,,
,3.722003,2.16E-09,,
,3.724003,2.17E-09,,
,3.726003,2.18E-09,,
,3.728003,2.19E-09,,
,3.730003,2.20E-09,,
,3.732003,2.21E-09,,
,3.734003,2.21E-09,,
,3.736003,2.22E-09,,
,3.738003,2.22E-09,,
,3.740003,2.23E-09,,
,3.742003,2.23E-09,,
,3.744003,2.23E-09,,
,3.746003,2.24E-09,,
,3.748003,2.24E-09,,
,3.750003,2.24E-09,,
,3.752003,2.24E-09,,
,3.754003,2.24E-09,,
,3.756003,2.24E-09,,
,3.758003,2.23E-09,,
,3.760003,2.23E-09,,
,3.762003,2.23E-09,,
,3.764003,2.22E-09,,
,3.766003,2.22E-09,,
,3.768003,2.21E-09,,
,3.770003,2.21E-09,,
,3.772003,2.20E-09,,
,3.774003,2.19E-09,,
,3.776003,2.19E-09,,
,3.778003,2.18E-09,,
,3.780003,2.17E-09,,
,3.782003,2.16E-09,,
,3.784003,2.15E-09,,
,3.786003,2.15E-09,,
,3.788003,2.14E-09,,
,3.790003,2.13E-09,,
,3.792003,2.12E-09,,
,3.794003,2.11E-09,,
,3.796003,2.10E-09,,
,3.798003,2.09E-09,,
,3.800003,2.07E-09,,
,3.802003,2.06E-09,,
,3.804003,2.05E-09,,
,3.806003,2.04E-09,,
,3.808003,2.03E-09,,
,3.810003,2.01E-09,,
,3.812003,2.00E-09,,
,3.814003,1.99E-09,,
,3.816003,1.97E-09,,
,3.818003,1.96E-09,,
,3.820003,1.94E-09,,
,3.822003,1.93E-09,,
,3.824003,1.91E-09,,
,3.826003,1.90E-09,,
,3.828003,1.88E-09,,
,3.830003,1.87E-09,,
,3.832003,1.85E-09,,
,3.834003,1.84E-09,,
,3.836003,1.82E-09,,
,3.838003,1.81E-09,,
,3.840003,1.79E-09,,
,3.842003,1.78E-09,,
,3.844003,1.77E-09,,
,3.846003,1.75E-09,,
,3.848003,1.74E-09,,
,3.850003,1.73E-09,,
,3.852003,1.72E-09,,
,3.854003,1.70E-09,,
,3.856003,1.69E-09,,
,3.858003,1.68E-09,,
,3.860003,1.67E-09,,
,3.862003,1.66E-09,,
,3.864003,1.65E-09,,
,3.866003,1.64E-09,,
,3.868003,1.63E-09,,
,3.870003,1.62E-09,,
,3.872003,1.61E-09,,
,3.874003,1.60E-09,,
,3.876003,1.59E-09,,
,3.878003,1.58E-09,,
,3.880003,1.57E-09,,
,3.882003,1.56E-09,,
,3.884003,1.55E-09,,
,3.886003,1.54E-09,,
,3.888003,1.53E-09,,
,3.890003,1.51E-09,,
,3.892003,1.50E-09,,
,3.894003,1.49E-09,,
,3.896003,1.47E-09,,
,3.898003,1.46E-09,,
,3.900003,1.44E-09,,
,3.902003,1.42E-09,,
,3.904003,1.41E-09,,
,3.906003,1.39E-09,,
,3.908003,1.37E-09,,
,3.910003,1.34E-09,,
,3.912003,1.32E-09,,
,3.914003,1.30E-09,,
,3.916003,1.27E-09,,
,3.918003,1.25E-09,,
,3.920003,1.22E-09,,
,3.922003,1.19E-09,,
,3.924003,1.16E-09,,
,3.926003,1.12E-09,,
,3.928003,1.09E-09,,
,3.930003,1.05E-09,,
,3.932003,1.02E-09,,
,3.934003,9.76E-10,,
,3.936003,9.35E-10,,
,3.938003,8.92E-10,,
,3.940003,8.48E-10,,
,3.942003,8.03E-10,,
,3.944003,7.57E-10,,
,3.946003,7.10E-10,,
,3.948003,6.62E-10,,
,3.950003,6.13E-10,,
,3.952003,5.64E-10,,
,3.954003,5.14E-10,,
,3.956003,4.64E-10,,
,3.958003,4.14E-10,,
,3.960003,3.65E-10,,
,3.962003,3.17E-10,,
,3.964003,2.69E-10,,
,3.966003,2.23E-10,,
,3.968003,1.77E-10,,
,3.970003,1.33E-10,,
,3.972003,8.96E-11,,
,3.974003,4.80E-11,,
,3.976003,8.24E-12,,
,3.978003,-2.90E-11,,
,3.980003,-6.43E-11,,
,3.982003,-9.78E-11,,
,3.984003,-1.30E-10,,
,3.986003,-1.60E-10,,
,3.988003,-1.88E-10,,
,3.990003,-2.15E-10,,
,3.992003,-2.39E-10,,
,3.994003,-2.61E-10,,
,3.996003,-2.81E-10,,
,3.998003,-3.00E-10,,
,4.000003,-3.17E-10,,
,4.002003,-3.32E-10,,
,4.004003,-3.45E-10,,
,4.006003,-3.56E-10,,
,4.008003,-3.66E-10,,
,4.010003,-3.73E-10,,
,4.012003,-3.79E-10,,
,4.014003,-3.83E-10,,
,4.016003,-3.85E-10,,
,4.018003,-3.86E-10,,
,4.020003,-3.86E-10,,
,4.022003,-3.85E-10,,
,4.024003,-3.82E-10,,
,4.026003,-3.77E-10,,
,4.028003,-3.70E-10,,
,4.030003,-3.62E-10,,
,4.032003,-3.52E-10,,
,4.034003,-3.42E-10,,
,4.036003,-3.31E-10,,
,4.038003,-3.18E-10,,
,4.040003,-3.05E-10,,
,4.042003,-2.91E-10,,
,4.044003,-2.75E-10,,
,4.046003,-2.57E-10,,
,4.048003,-2.40E-10,,
,4.050003,-2.21E-10,,
,4.052003,-2.02E-10,,
,4.054003,-1.83E-10,,
,4.056003,-1.63E-10,,
,4.058003,-1.42E-10,,
,4.060003,-1.20E-10,,
,4.062003,-9.79E-11,,
,4.064003,-7.51E-11,,
,4.066003,-5.20E-11,,
,4.068003,-2.88E-11,,
,4.070003,-6.04E-12,,
,4.072003,1.70E-11,,
,4.074003,4.03E-11,,
,4.076003,6.43E-11,,
,4.078003,8.84E-11,,
,4.080003,1.13E-10,,
,4.082003,1.37E-10,,
,4.084003,1.61E-10,,
,4.086003,1.84E-10,,
,4.088003,2.06E-10,,
,4.090003,2.29E-10,,
,4.092003,2.51E-10,,
,4.094003,2.73E-10,,
,4.096003,2.95E-10,,
,4.098003,3.16E-10,,
,4.100003,3.36E-10,,
,4.102003,3.55E-10,,
,4.104003,3.73E-10,,
,4.106003,3.91E-10,,
,4.108003,4.08E-10,,
,4.110003,4.25E-10,,
,4.112003,4.41E-10,,
,4.114003,4.57E-10,,
,4.116003,4.71E-10,,
,4.118003,4.85E-10,,
,4.120003,4.98E-10,,
,4.122003,5.11E-10,,
,4.124003,5.22E-10,,
,4.126003,5.34E-10,,
,4.128003,5.44E-10,,
,4.130003,5.55E-10,,
,4.132003,5.64E-10,,
,4.134003,5.73E-10,,
,4.136003,5.81E-10,,
,4.138003,5.88E-10,,
,4.140003,5.94E-10,,
,4.142003,6.00E-10,,
,4.144003,6.06E-10,,
,4.146003,6.12E-10,,
,4.148003,6.17E-10,,
,4.150003,6.21E-10,,
,4.152003,6.24E-10,,
,4.154003,6.27E-10,,
,4.156003,6.30E-10,,
,4.158003,6.32E-10,,
,4.160003,6.35E-10,,
,4.162003,6.37E-10,,
,4.164003,6.39E-10,,
,4.166003,6.41E-10,,
,4.168003,6.42E-10,,
,4.170003,6.43E-10,,
,4.172003,6.43E-10,,
,4.174003,6.43E-10,,
,4.176003,6.43E-10,,
,4.178003,6.43E-10,,
,4.180003,6.43E-10,,
,4.182003,6.43E-10,,
,4.184003,6.42E-10,,
,4.186003,6.41E-10,,
,4.188003,6.39E-10,,
,4.190003,6.38E-10,,
,4.192003,6.36E-10,,
,4.194003,6.35E-10,,
,4.196003,6.33E-10,,
,4.198003,6.32E-10,,
,4.200003,6.30E-10,,
,4.202003,6.28E-10,,
,4.204003,6.25E-10,,
,4.206003,6.22E-10,,
,4.208003,6.19E-10,,
,4.210003,6.17E-10,,
,4.212003,6.14E-10,,
,4.214003,6.11E-10,,
,4.216003,6.09E-10,,
,4.218003,6.06E-10,,
,4.220003,6.02E-10,,
,4.222003,5.99E-10,,
,4.224003,5.95E-10,,
,4.226003,5.92E-10,,
,4.228003,5.88E-10,,
,4.230003,5.85E-10,,
,4.232003,5.82E-10,,
,4.234003,5.78E-10,,
,4.236003,5.74E-10,,
,4.238003,5.70E-10,,
,4.240003,5.66E-10,,
,4.242003,5.62E-10,,
,4.244003,5.58E-10,,
,4.246003,5.54E-10,,
,4.248003,5.51E-10,,
,4.250003,5.47E-10,,
,4.252003,5.43E-10,,
,4.254003,5.38E-10,,
,4.256003,5.33E-10,,
,4.258003,5.29E-10,,
,4.260003,5.25E-10,,
,4.262003,5.21E-10,,
,4.264003,5.18E-10,,
,4.266003,5.14E-10,,
,4.268003,5.10E-10,,
,4.270003,5.05E-10,,
,4.272003,5.01E-10,,
,4.274003,4.96E-10,,
,4.276003,4.92E-10,,
,4.278003,4.88E-10,,
,4.280003,4.84E-10,,
,4.282003,4.81E-10,,
,4.284003,4.76E-10,,
,4.286003,4.72E-10,,
,4.288003,4.67E-10,,
,4.290003,4.63E-10,,
,4.292003,4.59E-10,,
,4.294003,4.55E-10,,
,4.296003,4.52E-10,,
,4.298003,4.48E-10,,
,4.300003,4.44E-10,,
,4.302003,4.40E-10,,
,4.304003,4.36E-10,,
,4.306003,4.31E-10,,
,4.308003,4.27E-10,,
,4.310003,4.23E-10,,
,4.312003,4.20E-10,,
,4.314003,4.16E-10,,
,4.316003,4.13E-10,,
,4.318003,4.09E-10,,
,4.320003,4.05E-10,,
,4.322003,4.01E-10,,
,4.324003,3.97E-10,,
,4.326003,3.93E-10,,
,4.328003,3.90E-10,,
,4.330003,3.87E-10,,
,4.332003,3.84E-10,,
,4.334003,3.80E-10,,
,4.336003,3.76E-10,,
,4.338003,3.73E-10,,
,4.340003,3.69E-10,,
,4.342003,3.66E-10,,
,4.344003,3.62E-10,,
,4.346003,3.59E-10,,
,4.348003,3.56E-10,,
,4.350003,3.53E-10,,
,4.352003,3.50E-10,,
,4.354003,3.47E-10,,
,4.356003,3.43E-10,,
,4.358003,3.40E-10,,
,4.360003,3.37E-10,,
,4.362003,3.34E-10,,
,4.364003,3.32E-10,,
,4.366003,3.30E-10,,
,4.368003,3.27E-10,,
,4.370003,3.24E-10,,
,4.372003,3.21E-10,,
,4.374003,3.18E-10,,
,4.376003,3.15E-10,,
,4.378003,3.13E-10,,
,4.380003,3.11E-10,,
,4.382003,3.09E-10,,
,4.384003,3.07E-10,,
,4.386003,3.04E-10,,
,4.388003,3.01E-10,,
,4.390003,2.99E-10,,
,4.392003,2.97E-10,,
,4.394003,2.95E-10,,
,4.396003,2.93E-10,,
,4.398003,2.92E-10,,
,4.400003,2.90E-10,,
,4.402003,2.88E-10,,
,4.404003,2.86E-10,,
,4.406003,2.83E-10,,
,4.408003,2.81E-10,,
,4.410003,2.79E-10,,
,4.412003,2.77E-10,,
,4.414003,2.76E-10,,
,4.416003,2.74E-10,,
,4.418003,2.73E-10,,
,4.420003,2.71E-10,,
,4.422003,2.69E-10,,
,4.424003,2.67E-10,,
,4.426003,2.65E-10,,
,4.428003,2.63E-10,,
,4.430003,2.62E-10,,
,4.432003,2.60E-10,,
,4.434003,2.58E-10,,
,4.436003,2.57E-10,,
,4.438003,2.54E-10,,
,4.440003,2.52E-10,,
,4.442003,2.50E-10,,
,4.444003,2.48E-10,,
,4.446003,2.47E-10,,
,4.448003,2.45E-10,,
,4.450003,2.44E-10,,
,4.452003,2.42E-10,,
,4.454003,2.40E-10,,
,4.456003,2.37E-10,,
,4.458003,2.35E-10,,
,4.460003,2.33E-10,,
,4.462003,2.32E-10,,
,4.464003,2.30E-10,,
,4.466003,2.28E-10,,
,4.468003,2.26E-10,,
,4.470003,2.24E-10,,
,4.472003,2.21E-10,,
,4.474003,2.19E-10,,
,4.476003,2.17E-10,,
,4.478003,2.15E-10,,
,4.480003,2.14E-10,,
,4.482003,2.12E-10,,
,4.484003,2.10E-10,,
,4.486003,2.08E-10,,
,4.488003,2.05E-10,,
,4.490003,2.03E-10,,
,4.492003,2.01E-10,,
,4.494003,2.00E-10,,
,4.496003,1.98E-10,,
,4.498003,1.97E-10,,
,4.500003,1.95E-10,,
,4.502003,1.93E-10,,
,4.504003,1.91E-10,,
,4.506003,1.89E-10,,
,4.508003,1.87E-10,,
,4.510003,1.85E-10,,
,4.512003,1.84E-10,,
,4.514003,1.82E-10,,
,4.516003,1.81E-10,,
,4.518003,1.80E-10,,
,4.520003,1.78E-10,,
,4.522003,1.76E-10,,
,4.524003,1.74E-10,,
,4.526003,1.73E-10,,
,4.528003,1.72E-10,,
,4.530003,1.71E-10,,
,4.532003,1.70E-10,,
,4.534003,1.69E-10,,
,4.536003,1.67E-10,,
,4.538003,1.66E-10,,
,4.540003,1.65E-10,,
,4.542003,1.64E-10,,
,4.544003,1.63E-10,,
,4.546003,1.63E-10,,
,4.548003,1.62E-10,,
,4.550003,1.62E-10,,
,4.552003,1.62E-10,,
,4.554003,1.61E-10,,
,4.556003,1.60E-10,,
,4.558003,1.60E-10,,
,4.560003,1.60E-10,,
,4.562003,1.60E-10,,
,4.564003,1.60E-10,,
,4.566003,1.61E-10,,
,4.568003,1.61E-10,,
,4.570003,1.61E-10,,
,4.572003,1.61E-10,,
,4.574003,1.61E-10,,
,4.576003,1.61E-10,,
,4.578003,1.62E-10,,
,4.580003,1.63E-10,,
,4.582003,1.64E-10,,
,4.584003,1.65E-10,,
,4.586003,1.65E-10,,
,4.588003,1.65E-10,,
,4.590003,1.65E-10,,
,4.592003,1.66E-10,,
,4.594003,1.66E-10,,
,4.596003,1.67E-10,,
,4.598003,1.68E-10,,
,4.600003,1.69E-10,,
,4.602003,1.69E-10,,
,4.604003,1.69E-10,,
,4.606003,1.69E-10,,
,4.608003,1.69E-10,,
,4.610003,1.69E-10,,
,4.612003,1.69E-10,,
,4.614003,1.70E-10,,
,4.616003,1.70E-10,,
,4.618003,1.70E-10,,
,4.620003,1.70E-10,,
,4.622003,1.70E-10,,
,4.624003,1.70E-10,,
,4.626003,1.70E-10,,
,4.628003,1.70E-10,,
,4.630003,1.70E-10,,
,4.632003,1.71E-10,,
,4.634003,1.71E-10,,
,4.636003,1.71E-10,,
,4.638003,1.71E-10,,
,4.640003,1.70E-10,,
,4.642003,1.70E-10,,
,4.644003,1.71E-10,,
,4.646003,1.71E-10,,
,4.648003,1.71E-10,,
,4.650003,1.72E-10,,
,4.652003,1.72E-10,,
,4.654003,1.72E-10,,
,4.656003,1.71E-10,,
,4.658003,1.71E-10,,
,4.660003,1.71E-10,,
,4.662003,1.72E-10,,
,4.664003,1.72E-10,,
,4.666003,1.72E-10,,
,4.668003,1.73E-10,,
,4.670003,1.72E-10,,
,4.672003,1.72E-10,,
,4.674003,1.72E-10,,
,4.676003,1.72E-10,,
,4.678003,1.72E-10,,
,4.680003,1.72E-10,,
,4.682003,1.73E-10,,
,4.684003,1.73E-10,,
,4.686003,1.73E-10,,
,4.688003,1.72E-10,,
,4.690003,1.72E-10,,
,4.692003,1.72E-10,,
,4.694003,1.71E-10,,
,4.696003,1.72E-10,,
,4.698003,1.72E-10,,
,4.700003,1.72E-10,,
,4.702003,1.71E-10,,
,4.704003,1.71E-10,,
,4.706003,1.70E-10,,
,4.708003,1.69E-10,,
,4.710003,1.69E-10,,
,4.712003,1.69E-10,,
,4.714003,1.69E-10,,
,4.716003,1.69E-10,,
,4.718003,1.68E-10,,
,4.720003,1.68E-10,,
,4.722003,1.67E-10,,
,4.724003,1.66E-10,,
,4.726003,1.65E-10,,
,4.728003,1.65E-10,,
,4.730003,1.65E-10,,
,4.732003,1.65E-10,,
,4.734003,1.64E-10,,
,4.736003,1.63E-10,,
,4.738003,1.62E-10,,
,4.740003,1.61E-10,,
,4.742003,1.61E-10,,
,4.744003,1.61E-10,,
,4.746003,1.60E-10,,
,4.748003,1.60E-10,,
,4.750003,1.60E-10,,
,4.752003,1.59E-10,,
,4.754003,1.58E-10,,
,4.756003,1.57E-10,,
,4.758003,1.56E-10,,
,4.760003,1.56E-10,,
,4.762003,1.56E-10,,
,4.764003,1.56E-10,,
,4.766003,1.56E-10,,
,4.768003,1.56E-10,,
,4.770003,1.55E-10,,
,4.772003,1.54E-10,,
,4.774003,1.53E-10,,
,4.776003,1.53E-10,,
,4.778003,1.52E-10,,
,4.780003,1.52E-10,,
,4.782003,1.52E-10,,
,4.784003,1.52E-10,,
,4.786003,1.51E-10,,
,4.788003,1.51E-10,,
,4.790003,1.50E-10,,
,4.792003,1.49E-10,,
,4.794003,1.49E-10,,
,4.796003,1.49E-10,,
,4.798003,1.49E-10,,
,4.800003,1.49E-10,,
,4.802003,1.49E-10,,
,4.804003,1.48E-10,,
,4.806003,1.47E-10,,
,4.808003,1.46E-10,,
,4.810003,1.46E-10,,
,4.812003,1.46E-10,,
,4.814003,1.46E-10,,
,4.816003,1.46E-10,,
,4.818003,1.46E-10,,
,4.820003,1.45E-10,,
,4.822003,1.44E-10,,
,4.824003,1.43E-10,,
,4.826003,1.43E-10,,
,4.828003,1.43E-10,,
,4.830003,1.43E-10,,
,4.832003,1.43E-10,,
,4.834003,1.43E-10,,
,4.836003,1.42E-10,,
,4.838003,1.41E-10,,
,4.840003,1.40E-10,,
,4.842003,1.39E-10,,
,4.844003,1.39E-10,,
,4.846003,1.39E-10,,
,4.848003,1.39E-10,,
,4.850003,1.39E-10,,
,4.852003,1.38E-10,,
,4.854003,1.37E-10,,
,4.856003,1.37E-10,,
,4.858003,1.37E-10,,
,4.860003,1.36E-10,,
,4.862003,1.36E-10,,
,4.864003,1.36E-10,,
,4.866003,1.36E-10,,
,4.868003,1.36E-10,,
,4.870003,1.35E-10,,
,4.872003,1.35E-10,,
,4.874003,1.34E-10,,
,4.876003,1.33E-10,,
,4.878003,1.33E-10,,
,4.880003,1.33E-10,,
,4.882003,1.34E-10,,
,4.884003,1.34E-10,,
,4.886003,1.33E-10,,
,4.888003,1.32E-10,,
,4.890003,1.32E-10,,
,4.892003,1.31E-10,,
,4.894003,1.31E-10,,
,4.896003,1.32E-10,,
,4.898003,1.33E-10,,
,4.900003,1.33E-10,,
,4.902003,1.32E-10,,
,4.904003,1.31E-10,,
,4.906003,1.31E-10,,
,4.908003,1.31E-10,,
,4.910003,1.31E-10,,
,4.912003,1.31E-10,,
,4.914003,1.31E-10,,
,4.916003,1.31E-10,,
,4.918003,1.31E-10,,
,4.920003,1.31E-10,,
,4.922003,1.30E-10,,
,4.924003,1.30E-10,,
,4.926003,1.30E-10,,
,4.928003,1.30E-10,,
,4.930003,1.30E-10,,
,4.932003,1.31E-10,,
,4.934003,1.30E-10,,
,4.936003,1.30E-10,,
,4.938003,1.29E-10,,
,4.940003,1.29E-10,,
,4.942003,1.29E-10,,
,4.944003,1.29E-10,,
,4.946003,1.29E-10,,
,4.948003,1.29E-10,,
,4.950003,1.29E-10,,
,4.952003,1.29E-10,,
,4.954003,1.29E-10,,
,4.956003,1.28E-10,,
,4.958003,1.28E-10,,
,4.960003,1.28E-10,,
,4.962003,1.28E-10,,
,4.964003,1.28E-10,,
,4.966003,1.28E-10,,
,4.968003,1.28E-10,,
,4.970003,1.28E-10,,
,4.972003,1.27E-10,,
,4.974003,1.27E-10,,
,4.976003,1.27E-10,,
,4.978003,1.27E-10,,
,4.980003,1.27E-10,,
,4.982003,1.27E-10,,
,4.984003,1.27E-10,,
,4.986003,1.27E-10,,
,4.988003,1.27E-10,,
,4.990003,1.26E-10,,
,4.992003,1.26E-10,,
,4.994003,1.26E-10,,
,4.996003,1.27E-10,,
,4.998003,1.27E-10,,
,5.000003,1.27E-10,,
,5.002003,1.27E-10,,
,5.004003,1.26E-10,,
,5.006003,1.25E-10,,
,5.008003,1.25E-10,,
,5.010003,1.25E-10,,
,5.012003,1.26E-10,,
,5.014003,1.26E-10,,
,5.016003,1.26E-10,,
,5.018003,1.26E-10,,
,5.020003,1.25E-10,,
,5.022003,1.25E-10,,
,5.024003,1.25E-10,,
,5.026003,1.25E-10,,
,5.028003,1.25E-10,,
,5.030003,1.25E-10,,
,5.032003,1.26E-10,,
,5.034003,1.26E-10,,
,5.036003,1.25E-10,,
,5.038003,1.25E-10,,
,5.040003,1.24E-10,,
,5.042003,1.23E-10,,
,5.044003,1.23E-10,,
,5.046003,1.23E-10,,
,5.048003,1.24E-10,,
,5.050003,1.24E-10,,
,5.052003,1.23E-10,,
,5.054003,1.22E-10,,
,5.056003,1.22E-10,,
,5.058003,1.22E-10,,
,5.060003,1.22E-10,,
,5.062003,1.22E-10,,
,5.064003,1.22E-10,,
,5.066003,1.22E-10,,
,5.068003,1.21E-10,,
,5.070003,1.21E-10,,
,5.072003,1.20E-10,,
,5.074003,1.19E-10,,
,5.076003,1.19E-10,,
,5.078003,1.19E-10,,
,5.080003,1.19E-10,,
,5.082003,1.19E-10,,
,5.084003,1.19E-10,,
,5.086003,1.18E-10,,
,5.088003,1.18E-10,,
,5.090003,1.17E-10,,
,5.092003,1.16E-10,,
,5.094003,1.16E-10,,
,5.096003,1.16E-10,,
,5.098003,1.16E-10,,
,5.100003,1.16E-10,,
,5.102003,1.16E-10,,
,5.104003,1.15E-10,,
,5.106003,1.15E-10,,
,5.108003,1.14E-10,,
,5.110003,1.14E-10,,
,5.112003,1.14E-10,,
,5.114003,1.15E-10,,
,5.116003,1.15E-10,,
,5.118003,1.15E-10,,
,5.120003,1.14E-10,,
,5.122003,1.13E-10,,
,5.124003,1.13E-10,,
,5.126003,1.13E-10,,
,5.128003,1.13E-10,,
,5.130003,1.14E-10,,
,5.132003,1.14E-10,,
,5.134003,1.14E-10,,
,5.136003,1.13E-10,,
,5.138003,1.13E-10,,
,5.140003,1.12E-10,,
,5.142003,1.12E-10,,
,5.144003,1.12E-10,,
,5.146003,1.13E-10,,
,5.148003,1.13E-10,,
,5.150003,1.13E-10,,
,5.152003,1.13E-10,,
,5.154003,1.13E-10,,
,5.156003,1.12E-10,,
,5.158003,1.12E-10,,
,5.160003,1.12E-10,,
,5.162003,1.12E-10,,
,5.164003,1.12E-10,,
,5.166003,1.13E-10,,
,5.168003,1.13E-10,,
,5.170003,1.12E-10,,
,5.172003,1.12E-10,,
,5.174003,1.11E-10,,
,5.176003,1.11E-10,,
,5.178003,1.11E-10,,
,5.180003,1.11E-10,,
,5.182003,1.12E-10,,
,5.184003,1.12E-10,,
,5.186003,1.11E-10,,
,5.188003,1.11E-10,,
,5.190003,1.10E-10,,
,5.192003,1.10E-10,,
,5.194003,1.10E-10,,
,5.196003,1.10E-10,,
,5.198003,1.10E-10,,
,5.200003,1.10E-10,,
,5.202003,1.10E-10,,
,5.204003,1.09E-10,,
,5.206003,1.09E-10,,
,5.208003,1.09E-10,,
,5.210003,1.09E-10,,
,5.212003,1.09E-10,,
,5.214003,1.09E-10,,
,5.216003,1.09E-10,,
,5.218003,1.09E-10,,
,5.220003,1.09E-10,,
,5.222003,1.08E-10,,
,5.224003,1.08E-10,,
,5.226003,1.07E-10,,
,5.228003,1.07E-10,,
,5.230003,1.07E-10,,
,5.232003,1.08E-10,,
,5.234003,1.08E-10,,
,5.236003,1.08E-10,,
,5.238003,1.07E-10,,
,5.240003,1.06E-10,,
,5.242003,1.06E-10,,
,5.244003,1.06E-10,,
,5.246003,1.07E-10,,
,5.248003,1.07E-10,,
,5.250003,1.07E-10,,
,5.252003,1.07E-10,,
,5.254003,1.07E-10,,
,5.256003,1.06E-10,,
,5.258003,1.06E-10,,
,5.260003,1.06E-10,,
,5.262003,1.06E-10,,
,5.264003,1.06E-10,,
,5.266003,1.07E-10,,
,5.268003,1.07E-10,,
,5.270003,1.06E-10,,
,5.272003,1.06E-10,,
,5.274003,1.05E-10,,
,5.276003,1.05E-10,,
,5.278003,1.06E-10,,
,5.280003,1.06E-10,,
,5.282003,1.07E-10,,
,5.284003,1.07E-10,,
,5.286003,1.07E-10,,
,5.288003,1.06E-10,,
,5.290003,1.06E-10,,
,5.292003,1.06E-10,,
,5.294003,1.06E-10,,
,5.296003,1.06E-10,,
,5.298003,1.07E-10,,
,5.300003,1.07E-10,,
,5.302003,1.08E-10,,
,5.304003,1.07E-10,,
,5.306003,1.07E-10,,
,5.308003,1.06E-10,,
,5.310003,1.07E-10,,
,5.312003,1.07E-10,,
,5.314003,1.07E-10,,
,5.316003,1.08E-10,,
,5.318003,1.08E-10,,
,5.320003,1.08E-10,,
,5.322003,1.07E-10,,
,5.324003,1.07E-10,,
,5.326003,1.07E-10,,
,5.328003,1.08E-10,,
,5.330003,1.08E-10,,
,5.332003,1.08E-10,,
,5.334003,1.09E-10,,
,5.336003,1.08E-10,,
,5.338003,1.08E-10,,
,5.340003,1.07E-10,,
,5.342003,1.07E-10,,
,5.344003,1.08E-10,,
,5.346003,1.08E-10,,
,5.348003,1.09E-10,,
,5.350003,1.09E-10,,
,5.352003,1.08E-10,,
,5.354003,1.08E-10,,
,5.356003,1.08E-10,,
,5.358003,1.08E-10,,
,5.360003,1.08E-10,,
,5.362003,1.08E-10,,
,5.364003,1.08E-10,,
,5.366003,1.09E-10,,
,5.368003,1.09E-10,,
,5.370003,1.08E-10,,
,5.372003,1.07E-10,,
,5.374003,1.07E-10,,
,5.376003,1.07E-10,,
,5.378003,1.07E-10,,
,5.380003,1.08E-10,,
,5.382003,1.08E-10,,
,5.384003,1.08E-10,,
,5.386003,1.08E-10,,
,5.388003,1.07E-10,,
,5.390003,1.07E-10,,
,5.392003,1.07E-10,,
,5.394003,1.07E-10,,
,5.396003,1.07E-10,,
,5.398003,1.07E-10,,
,5.400003,1.08E-10,,
,5.402003,1.08E-10,,
,5.404003,1.07E-10,,
,5.406003,1.06E-10,,
,5.408003,1.06E-10,,
,5.410003,1.06E-10,,
,5.412003,1.07E-10,,
,5.414003,1.07E-10,,
,5.416003,1.07E-10,,
,5.418003,1.07E-10,,
,5.420003,1.07E-10,,
,5.422003,1.06E-10,,
,5.424003,1.06E-10,,
,5.426003,1.06E-10,,
,5.428003,1.05E-10,,
,5.430003,1.06E-10,,
,5.432003,1.06E-10,,
,5.434003,1.06E-10,,
,5.436003,1.06E-10,,
,5.438003,1.05E-10,,
,5.440003,1.04E-10,,
,5.442003,1.04E-10,,
,5.444003,1.04E-10,,
,5.446003,1.04E-10,,
,5.448003,1.05E-10,,
,5.450003,1.05E-10,,
,5.452003,1.04E-10,,
,5.454003,1.04E-10,,
,5.456003,1.03E-10,,
,5.458003,1.02E-10,,
,5.460003,1.02E-10,,
,5.462003,1.02E-10,,
,5.464003,1.02E-10,,
,5.466003,1.02E-10,,
,5.468003,1.01E-10,,
,5.470003,1.00E-10,,
,5.472003,9.94E-11,,
,5.474003,9.87E-11,,
,5.476003,9.84E-11,,
,5.478003,9.82E-11,,
,5.480003,9.80E-11,,
,5.482003,9.78E-11,,
,5.484003,9.72E-11,,
,5.486003,9.66E-11,,
,5.488003,9.56E-11,,
,5.490003,9.46E-11,,
,5.492003,9.37E-11,,
,5.494003,9.29E-11,,
,5.496003,9.27E-11,,
,5.498003,9.26E-11,,
,5.500003,9.22E-11,,
,5.502003,9.14E-11,,
,5.504003,9.03E-11,,
,5.506003,8.93E-11,,
,5.508003,8.85E-11,,
,5.510003,8.78E-11,,
,5.512003,8.75E-11,,
,5.514003,8.69E-11,,
,5.516003,8.68E-11,,
,5.518003,8.60E-11,,
,5.520003,8.49E-11,,
,5.522003,8.34E-11,,
,5.524003,8.21E-11,,
,5.526003,8.12E-11,,
,5.528003,8.08E-11,,
,5.530003,8.06E-11,,
,5.532003,8.02E-11,,
,5.534003,7.92E-11,,
,5.536003,7.81E-11,,
,5.538003,7.68E-11,,
,5.540003,7.57E-11,,
,5.542003,7.47E-11,,
,5.544003,7.39E-11,,
,5.546003,7.33E-11,,
,5.548003,7.27E-11,,
,5.550003,7.19E-11,,
,5.552003,7.08E-11,,
,5.554003,6.93E-11,,
,5.556003,6.79E-11,,
,5.558003,6.69E-11,,
,5.560003,6.60E-11,,
,5.562003,6.51E-11,,
,5.564003,6.46E-11,,
,5.566003,6.40E-11,,
,5.568003,6.32E-11,,
,5.570003,6.16E-11,,
,5.572003,6.00E-11,,
,5.574003,5.86E-11,,
,5.576003,5.79E-11,,
,5.578003,5.72E-11,,
,5.580003,5.63E-11,,
,5.582003,5.54E-11,,
,5.584003,5.43E-11,,
,5.586003,5.31E-11,,
,5.588003,5.16E-11,,
,5.590003,5.04E-11,,
,5.592003,4.93E-11,,
,5.594003,4.84E-11,,
,5.596003,4.76E-11,,
,5.598003,4.69E-11,,
,5.600003,4.60E-11,,
,5.602003,4.47E-11,,
,5.604003,4.35E-11,,
,5.606003,4.21E-11,,
,5.608003,4.10E-11,,
,5.610003,4.01E-11,,
,5.612003,3.94E-11,,
,5.614003,3.88E-11,,
,5.616003,3.81E-11,,
,5.618003,3.72E-11,,
,5.620003,3.58E-11,,
,5.622003,3.45E-11,,
,5.624003,3.35E-11,,
,5.626003,3.27E-11,,
,5.628003,3.22E-11,,
,5.630003,3.16E-11,,
,5.632003,3.11E-11,,
,5.634003,3.07E-11,,
,5.636003,2.96E-11,,
,5.638003,2.85E-11,,
,5.640003,2.72E-11,,
,5.642003,2.67E-11,,
,5.644003,2.63E-11,,
,5.646003,2.61E-11,,
,5.648003,2.55E-11,,
,5.650003,2.52E-11,,
,5.652003,2.42E-11,,
,5.654003,2.35E-11,,
,5.656003,2.24E-11,,
,5.658003,2.18E-11,,
,5.660003,2.12E-11,,
,5.662003,2.09E-11,,
,5.664003,2.10E-11,,
,5.666003,2.09E-11,,
,5.668003,2.05E-11,,
,5.670003,1.96E-11,,
,5.672003,1.88E-11,,
,5.674003,1.81E-11,,
,5.676003,1.78E-11,,
,5.678003,1.77E-11,,
,5.680003,1.77E-11,,
,5.682003,1.75E-11,,
,5.684003,1.72E-11,,
,5.686003,1.65E-11,,
,5.688003,1.58E-11,,
,5.690003,1.51E-11,,
,5.692003,1.47E-11,,
,5.694003,1.46E-11,,
,5.696003,1.46E-11,,
,5.698003,1.46E-11,,
,5.700003,1.43E-11,,
,5.702003,1.38E-11,,
,5.704003,1.30E-11,,
,5.706003,1.21E-11,,
,5.708003,1.12E-11,,
,5.710003,1.10E-11,,
,5.712003,1.08E-11,,
,5.714003,1.08E-11,,
,5.716003,1.05E-11,,
,5.718003,9.96E-12,,
,5.720003,8.78E-12,,
,5.722003,7.81E-12,,
,5.724003,6.85E-12,,
,5.726003,6.42E-12,,
,5.728003,5.99E-12,,
,5.730003,5.88E-12,,
,5.732003,5.66E-12,,
,5.734003,5.02E-12,,
,5.736003,4.27E-12,,
,5.738003,3.20E-12,,
,5.740003,2.34E-12,,
,5.742003,1.37E-12,,
,5.744003,8.34E-13,,
,5.746003,4.04E-13,,
,5.748003,-2.53E-14,,
,5.750003,-6.69E-13,,
,5.752003,-1.74E-12,,
,5.754003,-2.92E-12,,
,5.756003,-4.32E-12,,
,5.758003,-5.50E-12,,
,5.760003,-6.47E-12,,
,5.762003,-6.90E-12,,
,5.764003,-7.65E-12,,
,5.766003,-8.29E-12,,
,5.768003,-9.69E-12,,
,5.770003,-1.10E-11,,
,5.772003,-1.26E-11,,
,5.774003,-1.42E-11,,
,5.776003,-1.55E-11,,
,5.778003,-1.66E-11,,
,5.780003,-1.71E-11,,
,5.782003,-1.80E-11,,
,5.784003,-1.89E-11,,
,5.786003,-2.04E-11,,
,5.788003,-2.19E-11,,
,5.790003,-2.35E-11,,
,5.792003,-2.49E-11,,
,5.794003,-2.60E-11,,
,5.796003,-2.70E-11,,
,5.798003,-2.78E-11,,
,5.800003,-2.89E-11,,
,5.802003,-3.03E-11,,
,5.804003,-3.19E-11,,
,5.806003,-3.34E-11,,
,5.808003,-3.48E-11,,
,5.810003,-3.61E-11,,
,5.812003,-3.73E-11,,
,5.814003,-3.84E-11,,
,5.816003,-3.92E-11,,
,5.818003,-4.07E-11,,
,5.820003,-4.23E-11,,
,5.822003,-4.44E-11,,
,5.824003,-4.58E-11,,
,5.826003,-4.70E-11,,
,5.828003,-4.80E-11,,
,5.830003,-4.91E-11,,
,5.832003,-5.02E-11,,
,5.834003,-5.13E-11,,
,5.836003,-5.30E-11,,
,5.838003,-5.47E-11,,
,5.840003,-5.64E-11,,
,5.842003,-5.78E-11,,
,5.844003,-5.87E-11,,
,5.846003,-5.97E-11,,
,5.848003,-6.05E-11,,
,5.850003,-6.18E-11,,
,5.852003,-6.30E-11,,
,5.854003,-6.49E-11,,
,5.856003,-6.65E-11,,
,5.858003,-6.83E-11,,
,5.860003,-6.96E-11,,
,5.862003,-7.07E-11,,
,5.864003,-7.12E-11,,
,5.866003,-7.21E-11,,
,5.868003,-7.32E-11,,
,5.870003,-7.51E-11,,
,5.872003,-7.69E-11,,
,5.874003,-7.87E-11,,
,5.876003,-8.00E-11,,
,5.878003,-8.12E-11,,
,5.880003,-8.23E-11,,
,5.882003,-8.32E-11,,
,5.884003,-8.43E-11,,
,5.886003,-8.57E-11,,
,5.888003,-8.74E-11,,
,5.890003,-8.89E-11,,
,5.892003,-9.01E-11,,
,5.894003,-9.13E-11,,
,5.896003,-9.24E-11,,
,5.898003,-9.32E-11,,
,5.900003,-9.42E-11,,
,5.902003,-9.56E-11,,
,5.904003,-9.74E-11,,
,5.906003,-9.92E-11,,
,5.908003,-1.01E-10,,
,5.910003,-1.02E-10,,
,5.912003,-1.03E-10,,
,5.914003,-1.05E-10,,
,5.916003,-1.06E-10,,
,5.918003,-1.07E-10,,
,5.920003,-1.09E-10,,
,5.922003,-1.11E-10,,
,5.924003,-1.13E-10,,
,5.926003,-1.14E-10,,
,5.928003,-1.15E-10,,
,5.930003,-1.15E-10,,
,5.932003,-1.16E-10,,
,5.934003,-1.18E-10,,
,5.936003,-1.19E-10,,
,5.938003,-1.21E-10,,
,5.940003,-1.23E-10,,
,5.942003,-1.25E-10,,
,5.944003,-1.26E-10,,
,5.946003,-1.27E-10,,
,5.948003,-1.28E-10,,
,5.950003,-1.29E-10,,
,5.952003,-1.31E-10,,
,5.954003,-1.32E-10,,
,5.956003,-1.34E-10,,
,5.958003,-1.35E-10,,
,5.960003,-1.36E-10,,
,5.962003,-1.36E-10,,
,5.964003,-1.37E-10,,
,5.966003,-1.37E-10,,
,5.968003,-1.37E-10,,
,5.970003,-1.38E-10,,
,5.972003,-1.39E-10,,
,5.974003,-1.39E-10,,
,5.976003,-1.40E-10,,
,5.978003,-1.40E-10,,
,5.980003,-1.40E-10,,
,5.982003,-1.39E-10,,
,5.984003,-1.39E-10,,
,5.986003,-1.40E-10,,
,5.988003,-1.40E-10,,
,5.990003,-1.40E-10,,
,5.992003,-1.40E-10,,
,5.994003,-1.39E-10,,
,5.996003,-1.39E-10,,
,5.998003,-1.38E-10,,
,6.000003,-1.37E-10,,
,6.002003,-1.37E-10,,
,6.004003,-1.37E-10,,
,6.006003,-1.37E-10,,
,6.008003,-1.36E-10,,
,6.010003,-1.36E-10,,
,6.012003,-1.35E-10,,
,6.014003,-1.34E-10,,
,6.016003,-1.33E-10,,
,6.018003,-1.32E-10,,
,6.020003,-1.32E-10,,
,6.022003,-1.31E-10,,
,6.024003,-1.31E-10,,
,6.026003,-1.30E-10,,
,6.028003,-1.29E-10,,
,6.030003,-1.27E-10,,
,6.032003,-1.26E-10,,
,6.034003,-1.24E-10,,
,6.036003,-1.23E-10,,
,6.038003,-1.23E-10,,
,6.040003,-1.22E-10,,
,6.042003,-1.21E-10,,
,6.044003,-1.19E-10,,
,6.046003,-1.17E-10,,
,6.048003,-1.15E-10,,
,6.050003,-1.14E-10,,
,6.052003,-1.12E-10,,
,6.054003,-1.11E-10,,
,6.056003,-1.09E-10,,
,6.058003,-1.07E-10,,
,6.060003,-1.05E-10,,
,6.062003,-1.03E-10,,
,6.064003,-1.01E-10,,
,6.066003,-9.81E-11,,
,6.068003,-9.61E-11,,
,6.070003,-9.46E-11,,
,6.072003,-9.29E-11,,
,6.074003,-9.08E-11,,
,6.076003,-8.86E-11,,
,6.078003,-8.63E-11,,
,6.080003,-8.40E-11,,
,6.082003,-8.14E-11,,
,6.084003,-7.90E-11,,
,6.086003,-7.71E-11,,
,6.088003,-7.52E-11,,
,6.090003,-7.33E-11,,
,6.092003,-7.09E-11,,
,6.094003,-6.86E-11,,
,6.096003,-6.62E-11,,
,6.098003,-6.37E-11,,
,6.100003,-6.12E-11,,
,6.102003,-5.93E-11,,
,6.104003,-5.78E-11,,
,6.106003,-5.65E-11,,
,6.108003,-5.47E-11,,
,6.110003,-5.22E-11,,
,6.112003,-4.96E-11,,
,6.114003,-4.70E-11,,
,6.116003,-4.50E-11,,
,6.118003,-4.34E-11,,
,6.120003,-4.19E-11,,
,6.122003,-4.07E-11,,
,6.124003,-3.93E-11,,
,6.126003,-3.78E-11,,
,6.128003,-3.59E-11,,
,6.130003,-3.37E-11,,
,6.132003,-3.17E-11,,
,6.134003,-3.03E-11,,
,6.136003,-2.90E-11,,
,6.138003,-2.79E-11,,
,6.140003,-2.66E-11,,
,6.142003,-2.54E-11,,
,6.144003,-2.40E-11,,
,6.146003,-2.20E-11,,
,6.148003,-2.04E-11,,
,6.150003,-1.89E-11,,
,6.152003,-1.80E-11,,
,6.154003,-1.68E-11,,
,6.156003,-1.57E-11,,
,6.158003,-1.45E-11,,
,6.160003,-1.31E-11,,
,6.162003,-1.14E-11,,
,6.164003,-9.58E-12,,
,6.166003,-7.75E-12,,
,6.168003,-6.25E-12,,
,6.170003,-4.75E-12,,
,6.172003,-3.68E-12,,
,6.174003,-2.49E-12,,
,6.176003,-1.10E-12,,
,6.178003,7.26E-13,,
,6.180003,2.87E-12,,
,6.182003,4.81E-12,,
,6.184003,6.63E-12,,
,6.186003,8.13E-12,,
,6.188003,9.64E-12,,
,6.190003,1.10E-11,,
,6.192003,1.29E-11,,
,6.194003,1.50E-11,,
,6.196003,1.76E-11,,
,6.198003,1.97E-11,,
,6.200003,2.17E-11,,
,6.202003,2.33E-11,,
,6.204003,2.48E-11,,
,6.206003,2.64E-11,,
,6.208003,2.81E-11,,
,6.210003,3.02E-11,,
,6.212003,3.25E-11,,
,6.214003,3.48E-11,,
,6.216003,3.69E-11,,
,6.218003,3.88E-11,,
,6.220003,4.02E-11,,
,6.222003,4.15E-11,,
,6.224003,4.27E-11,,
,6.226003,4.47E-11,,
,6.228003,4.69E-11,,
,6.230003,4.93E-11,,
,6.232003,5.12E-11,,
,6.234003,5.27E-11,,
,6.236003,5.37E-11,,
,6.238003,5.43E-11,,
,6.240003,5.53E-11,,
,6.242003,5.67E-11,,
,6.244003,5.82E-11,,
,6.246003,5.98E-11,,
,6.248003,6.12E-11,,
,6.250003,6.26E-11,,
,6.252003,6.34E-11,,
,6.254003,6.41E-11,,
,6.256003,6.46E-11,,
,6.258003,6.52E-11,,
,6.260003,6.63E-11,,
,6.262003,6.78E-11,,
,6.264003,6.93E-11,,
,6.266003,7.05E-11,,
,6.268003,7.12E-11,,
,6.270003,7.16E-11,,
,6.272003,7.18E-11,,
,6.274003,7.21E-11,,
,6.276003,7.28E-11,,
,6.278003,7.37E-11,,
,6.280003,7.50E-11,,
,6.282003,7.62E-11,,
,6.284003,7.68E-11,,
,6.286003,7.68E-11,,
,6.288003,7.67E-11,,
,6.290003,7.68E-11,,
,6.292003,7.72E-11,,
,6.294003,7.79E-11,,
,6.296003,7.90E-11,,
,6.298003,8.02E-11,,
,6.300003,8.06E-11,,
,6.302003,8.07E-11,,
,6.304003,8.04E-11,,
,6.306003,8.05E-11,,
,6.308003,8.04E-11,,
,6.310003,8.07E-11,,
,6.312003,8.11E-11,,
,6.314003,8.21E-11,,
,6.316003,8.29E-11,,
,6.318003,8.33E-11,,
,6.320003,8.32E-11,,
,6.322003,8.27E-11,,
,6.324003,8.25E-11,,
,6.326003,8.26E-11,,
,6.328003,8.33E-11,,
,6.330003,8.40E-11,,
,6.332003,8.47E-11,,
,6.334003,8.50E-11,,
,6.336003,8.49E-11,,
,6.338003,8.44E-11,,
,6.340003,8.40E-11,,
,6.342003,8.38E-11,,
,6.344003,8.40E-11,,
,6.346003,8.42E-11,,
,6.348003,8.45E-11,,
,6.350003,8.45E-11,,
,6.352003,8.40E-11,,
,6.354003,8.34E-11,,
,6.356003,8.26E-11,,
,6.358003,8.23E-11,,
,6.360003,8.20E-11,,
,6.362003,8.22E-11,,
,6.364003,8.22E-11,,
,6.366003,8.23E-11,,
,6.368003,8.18E-11,,
,6.370003,8.09E-11,,
,6.372003,7.98E-11,,
,6.374003,7.90E-11,,
,6.376003,7.83E-11,,
,6.378003,7.81E-11,,
,6.380003,7.78E-11,,
,6.382003,7.77E-11,,
,6.384003,7.71E-11,,
,6.386003,7.61E-11,,
,6.388003,7.47E-11,,
,6.390003,7.33E-11,,
,6.392003,7.25E-11,,
,6.394003,7.19E-11,,
,6.396003,7.16E-11,,
,6.398003,7.07E-11,,
,6.400003,6.99E-11,,
,6.402003,6.86E-11,,
,6.404003,6.71E-11,,
,6.406003,6.54E-11,,
,6.408003,6.39E-11,,
,6.410003,6.26E-11,,
,6.412003,6.14E-11,,
,6.414003,6.03E-11,,
,6.416003,5.90E-11,,
,6.418003,5.75E-11,,
,6.420003,5.55E-11,,
,6.422003,5.32E-11,,
,6.424003,5.10E-11,,
,6.426003,4.89E-11,,
,6.428003,4.73E-11,,
,6.430003,4.60E-11,,
,6.432003,4.46E-11,,
,6.434003,4.27E-11,,
,6.436003,4.03E-11,,
,6.438003,3.75E-11,,
,6.440003,3.50E-11,,
,6.442003,3.25E-11,,
,6.444003,3.08E-11,,
,6.446003,2.93E-11,,
,6.448003,2.78E-11,,
,6.450003,2.57E-11,,
,6.452003,2.31E-11,,
,6.454003,1.99E-11,,
,6.456003,1.70E-11,,
,6.458003,1.43E-11,,
,6.460003,1.21E-11,,
,6.462003,9.74E-12,,
,6.464003,7.70E-12,,
,6.466003,5.13E-12,,
,6.468003,2.23E-12,,
,6.470003,-1.10E-12,,
,6.472003,-4.75E-12,,
,6.474003,-8.18E-12,,
,6.476003,-1.13E-11,,
,6.478003,-1.42E-11,,
,6.480003,-1.72E-11,,
,6.482003,-2.04E-11,,
,6.484003,-2.40E-11,,
,6.486003,-2.79E-11,,
,6.488003,-3.23E-11,,
,6.490003,-3.68E-11,,
,6.492003,-4.13E-11,,
,6.494003,-4.51E-11,,
,6.496003,-4.89E-11,,
,6.498003,-5.26E-11,,
,6.500003,-5.69E-11,,
,6.502003,-6.13E-11,,
,6.504003,-6.60E-11,,
,6.506003,-7.07E-11,,
,6.508003,-7.52E-11,,
,6.510003,-7.90E-11,,
,6.512003,-8.26E-11,,
,6.514003,-8.58E-11,,
,6.516003,-8.92E-11,,
,6.518003,-9.30E-11,,
,6.520003,-9.69E-11,,
,6.522003,-1.01E-10,,
,6.524003,-1.04E-10,,
,6.526003,-1.06E-10,,
,6.528003,-1.08E-10,,
,6.530003,-1.10E-10,,
,6.532003,-1.11E-10,,
,6.534003,-1.13E-10,,
,6.536003,-1.14E-10,,
,6.538003,-1.15E-10,,
,6.540003,-1.17E-10,,
,6.542003,-1.17E-10,,
,6.544003,-1.17E-10,,
,6.546003,-1.17E-10,,
,6.548003,-1.16E-10,,
,6.550003,-1.16E-10,,
,6.552003,-1.15E-10,,
,6.554003,-1.15E-10,,
,6.556003,-1.15E-10,,
,6.558003,-1.14E-10,,
,6.560003,-1.13E-10,,
,6.562003,-1.11E-10,,
,6.564003,-1.09E-10,,
,6.566003,-1.07E-10,,
,6.568003,-1.05E-10,,
,6.570003,-1.03E-10,,
,6.572003,-1.02E-10,,
,6.574003,-1.00E-10,,
,6.576003,-9.80E-11,,
,6.578003,-9.56E-11,,
,6.580003,-9.27E-11,,
,6.582003,-8.99E-11,,
,6.584003,-8.75E-11,,
,6.586003,-8.53E-11,,
,6.588003,-8.33E-11,,
,6.590003,-8.11E-11,,
,6.592003,-7.88E-11,,
,6.594003,-7.59E-11,,
,6.596003,-7.29E-11,,
,6.598003,-6.96E-11,,
,6.600003,-6.68E-11,,
,6.602003,-6.42E-11,,
,6.604003,-6.22E-11,,
,6.606003,-6.00E-11,,
,6.608003,-5.75E-11,,
,6.610003,-5.49E-11,,
,6.612003,-5.19E-11,,
,6.614003,-4.90E-11,,
,6.616003,-4.59E-11,,
,6.618003,-4.36E-11,,
,6.620003,-4.14E-11,,
,6.622003,-3.92E-11,,
,6.624003,-3.67E-11,,
,6.626003,-3.39E-11,,
,6.628003,-3.11E-11,,
,6.630003,-2.75E-11,,
,6.632003,-2.43E-11,,
,6.634003,-2.15E-11,,
,6.636003,-1.93E-11,,
,6.638003,-1.73E-11,,
,6.640003,-1.48E-11,,
,6.642003,-1.19E-11,,
,6.644003,-8.72E-12,,
,6.646003,-5.29E-12,,
,6.648003,-1.96E-12,,
,6.650003,1.26E-12,,
,6.652003,4.05E-12,,
,6.654003,6.85E-12,,
,6.656003,9.53E-12,,
,6.658003,1.26E-11,,
,6.660003,1.62E-11,,
,6.662003,1.99E-11,,
,6.664003,2.39E-11,,
,6.666003,2.78E-11,,
,6.668003,3.13E-11,,
,6.670003,3.45E-11,,
,6.672003,3.75E-11,,
,6.674003,4.08E-11,,
,6.676003,4.43E-11,,
,6.678003,4.85E-11,,
,6.680003,5.30E-11,,
,6.682003,5.73E-11,,
,6.684003,6.11E-11,,
,6.686003,6.46E-11,,
,6.688003,6.83E-11,,
,6.690003,7.19E-11,,
,6.692003,7.59E-11,,
,6.694003,8.02E-11,,
,6.696003,8.51E-11,,
,6.698003,8.99E-11,,
,6.700003,9.44E-11,,
,6.702003,9.83E-11,,
,6.704003,1.02E-10,,
,6.706003,1.06E-10,,
,6.708003,1.10E-10,,
,6.710003,1.15E-10,,
,6.712003,1.19E-10,,
,6.714003,1.24E-10,,
,6.716003,1.28E-10,,
,6.718003,1.32E-10,,
,6.720003,1.36E-10,,
,6.722003,1.39E-10,,
,6.724003,1.43E-10,,
,6.726003,1.47E-10,,
,6.728003,1.50E-10,,
,6.730003,1.54E-10,,
,6.732003,1.58E-10,,
,6.734003,1.62E-10,,
,6.736003,1.65E-10,,
,6.738003,1.68E-10,,
,6.740003,1.71E-10,,
,6.742003,1.73E-10,,
,6.744003,1.76E-10,,
,6.746003,1.79E-10,,
,6.748003,1.82E-10,,
,6.750003,1.85E-10,,
,6.752003,1.87E-10,,
,6.754003,1.88E-10,,
,6.756003,1.90E-10,,
,6.758003,1.92E-10,,
,6.760003,1.95E-10,,
,6.762003,1.97E-10,,
,6.764003,2.00E-10,,
,6.766003,2.02E-10,,
,6.768003,2.04E-10,,
,6.770003,2.06E-10,,
,6.772003,2.07E-10,,
,6.774003,2.08E-10,,
,6.776003,2.10E-10,,
,6.778003,2.12E-10,,
,6.780003,2.14E-10,,
,6.782003,2.16E-10,,
,6.784003,2.18E-10,,
,6.786003,2.19E-10,,
,6.788003,2.20E-10,,
,6.790003,2.22E-10,,
,6.792003,2.24E-10,,
,6.794003,2.26E-10,,
,6.796003,2.29E-10,,
,6.798003,2.32E-10,,
,6.800003,2.34E-10,,
,6.802003,2.35E-10,,
,6.804003,2.37E-10,,
,6.806003,2.38E-10,,
,6.808003,2.40E-10,,
,6.810003,2.42E-10,,
,6.812003,2.44E-10,,
,6.814003,2.46E-10,,
,6.816003,2.47E-10,,
,6.818003,2.48E-10,,
,6.820003,2.49E-10,,
,6.822003,2.49E-10,,
,6.824003,2.49E-10,,
,6.826003,2.50E-10,,
,6.828003,2.50E-10,,
,6.830003,2.51E-10,,
,6.832003,2.51E-10,,
,6.834003,2.50E-10,,
,6.836003,2.49E-10,,
,6.838003,2.48E-10,,
,6.840003,2.46E-10,,
,6.842003,2.44E-10,,
,6.844003,2.43E-10,,
,6.846003,2.41E-10,,
,6.848003,2.40E-10,,
,6.850003,2.38E-10,,
,6.852003,2.35E-10,,
,6.854003,2.32E-10,,
,6.856003,2.29E-10,,
,6.858003,2.26E-10,,
,6.860003,2.23E-10,,
,6.862003,2.21E-10,,
,6.864003,2.18E-10,,
,6.866003,2.15E-10,,
,6.868003,2.12E-10,,
,6.870003,2.08E-10,,
,6.872003,2.04E-10,,
,6.874003,2.01E-10,,
,6.876003,1.98E-10,,
,6.878003,1.95E-10,,
,6.880003,1.92E-10,,
,6.882003,1.89E-10,,
,6.884003,1.86E-10,,
,6.886003,1.83E-10,,
,6.888003,1.80E-10,,
,6.890003,1.77E-10,,
,6.892003,1.75E-10,,
,6.894003,1.73E-10,,
,6.896003,1.71E-10,,
,6.898003,1.69E-10,,
,6.900003,1.68E-10,,
,6.902003,1.66E-10,,
,6.904003,1.64E-10,,
,6.906003,1.61E-10,,
,6.908003,1.60E-10,,
,6.910003,1.58E-10,,
,6.912003,1.57E-10,,
,6.914003,1.56E-10,,
,6.916003,1.55E-10,,
,6.918003,1.54E-10,,
,6.920003,1.52E-10,,
,6.922003,1.50E-10,,
,6.924003,1.49E-10,,
,6.926003,1.47E-10,,
,6.928003,1.46E-10,,
,6.930003,1.45E-10,,
,6.932003,1.44E-10,,
,6.934003,1.43E-10,,
,6.936003,1.42E-10,,
,6.938003,1.41E-10,,
,6.940003,1.39E-10,,
,6.942003,1.37E-10,,
,6.944003,1.36E-10,,
,6.946003,1.35E-10,,
,6.948003,1.34E-10,,
,6.950003,1.33E-10,,
,6.952003,1.31E-10,,
,6.954003,1.30E-10,,
,6.956003,1.28E-10,,
,6.958003,1.26E-10,,
,6.960003,1.25E-10,,
,6.962003,1.23E-10,,
,6.964003,1.22E-10,,
,6.966003,1.21E-10,,
,6.968003,1.19E-10,,
,6.970003,1.17E-10,,
,6.972003,1.15E-10,,
,6.974003,1.13E-10,,
,6.976003,1.11E-10,,
,6.978003,1.10E-10,,
,6.980003,1.08E-10,,
,6.982003,1.06E-10,,
,6.984003,1.04E-10,,
,6.986003,1.02E-10,,
,6.988003,9.96E-11,,
,6.990003,9.73E-11,,
,6.992003,9.56E-11,,
,6.994003,9.37E-11,,
,6.996003,9.21E-11,,
,6.998003,9.04E-11,,
,7.000003,8.88E-11,,
,7.002003,8.66E-11,,
,7.004003,8.42E-11,,
,7.006003,8.19E-11,,
,7.008003,7.98E-11,,
,7.010003,7.82E-11,,
,7.012003,7.71E-11,,
,7.014003,7.58E-11,,
,7.016003,7.45E-11,,
,7.018003,7.25E-11,,
,7.020003,7.06E-11,,
,7.022003,6.85E-11,,
,7.024003,6.70E-11,,
,7.026003,6.56E-11,,
,7.028003,6.47E-11,,
,7.030003,6.37E-11,,
,7.032003,6.32E-11,,
,7.034003,6.22E-11,,
,7.036003,6.11E-11,,
,7.038003,5.96E-11,,
,7.040003,5.82E-11,,
,7.042003,5.71E-11,,
,7.044003,5.66E-11,,
,7.046003,5.64E-11,,
,7.048003,5.64E-11,,
,7.050003,5.61E-11,,
,7.052003,5.53E-11,,
,7.054003,5.45E-11,,
,7.056003,5.34E-11,,
,7.058003,5.31E-11,,
,7.060003,5.27E-11,,
,7.062003,5.31E-11,,
,7.064003,5.33E-11,,
,7.066003,5.34E-11,,
,7.068003,5.30E-11,,
,7.070003,5.25E-11,,
,7.072003,5.21E-11,,
,7.074003,5.20E-11,,
,7.076003,5.23E-11,,
,7.078003,5.26E-11,,
,7.080003,5.32E-11,,
,7.082003,5.35E-11,,
,7.084003,5.37E-11,,
,7.086003,5.33E-11,,
,7.088003,5.29E-11,,
,7.090003,5.28E-11,,
,7.092003,5.29E-11,,
,7.094003,5.34E-11,,
,7.096003,5.41E-11,,
,7.098003,5.47E-11,,
,7.100003,5.53E-11,,
,7.102003,5.54E-11,,
,7.104003,5.50E-11,,
,7.106003,5.44E-11,,
,7.108003,5.42E-11,,
,7.110003,5.47E-11,,
,7.112003,5.56E-11,,
,7.114003,5.63E-11,,
,7.116003,5.68E-11,,
,7.118003,5.69E-11,,
,7.120003,5.66E-11,,
,7.122003,5.63E-11,,
,7.124003,5.63E-11,,
,7.126003,5.68E-11,,
,7.128003,5.71E-11,,
,7.130003,5.79E-11,,
,7.132003,5.88E-11,,
,7.134003,5.92E-11,,
,7.136003,5.90E-11,,
,7.138003,5.86E-11,,
,7.140003,5.87E-11,,
,7.142003,5.90E-11,,
,7.144003,5.96E-11,,
,7.146003,6.03E-11,,
,7.148003,6.12E-11,,
,7.150003,6.19E-11,,
,7.152003,6.25E-11,,
,7.154003,6.26E-11,,
,7.156003,6.27E-11,,
,7.158003,6.29E-11,,
,7.160003,6.39E-11,,
,7.162003,6.51E-11,,
,7.164003,6.64E-11,,
,7.166003,6.73E-11,,
,7.168003,6.78E-11,,
,7.170003,6.79E-11,,
,7.172003,6.80E-11,,
,7.174003,6.84E-11,,
,7.176003,6.91E-11,,
,7.178003,7.01E-11,,
,7.180003,7.13E-11,,
,7.182003,7.22E-11,,
,7.184003,7.28E-11,,
,7.186003,7.29E-11,,
,7.188003,7.29E-11,,
,7.190003,7.32E-11,,
,7.192003,7.36E-11,,
,7.194003,7.46E-11,,
,7.196003,7.58E-11,,
,7.198003,7.71E-11,,
,7.200003,7.79E-11,,
,7.202003,7.82E-11,,
,7.204003,7.81E-11,,
,7.206003,7.83E-11,,
,7.208003,7.88E-11,,
,7.210003,7.96E-11,,
,7.212003,8.04E-11,,
,7.214003,8.16E-11,,
,7.216003,8.26E-11,,
,7.218003,8.34E-11,,
,7.220003,8.34E-11,,
,7.222003,8.35E-11,,
,7.224003,8.40E-11,,
,7.226003,8.51E-11,,
,7.228003,8.63E-11,,
,7.230003,8.77E-11,,
,7.232003,8.90E-11,,
,7.234003,9.02E-11,,
,7.236003,9.09E-11,,
,7.238003,9.17E-11,,
,7.240003,9.23E-11,,
,7.242003,9.29E-11,,
,7.244003,9.40E-11,,
,7.246003,9.55E-11,,
,7.248003,9.70E-11,,
,7.250003,9.85E-11,,
,7.252003,9.94E-11,,
,7.254003,1.00E-10,,
,7.256003,1.01E-10,,
,7.258003,1.02E-10,,
,7.260003,1.04E-10,,
,7.262003,1.06E-10,,
,7.264003,1.09E-10,,
,7.266003,1.11E-10,,
,7.268003,1.12E-10,,
,7.270003,1.14E-10,,
,7.272003,1.15E-10,,
,7.274003,1.16E-10,,
,7.276003,1.17E-10,,
,7.278003,1.19E-10,,
,7.280003,1.22E-10,,
,7.282003,1.24E-10,,
,7.284003,1.26E-10,,
,7.286003,1.27E-10,,
,7.288003,1.28E-10,,
,7.290003,1.29E-10,,
,7.292003,1.30E-10,,
,7.294003,1.32E-10,,
,7.296003,1.34E-10,,
,7.298003,1.36E-10,,
,7.300003,1.38E-10,,
,7.302003,1.39E-10,,
,7.304003,1.40E-10,,
,7.306003,1.40E-10,,
,7.308003,1.41E-10,,
,7.310003,1.42E-10,,
,7.312003,1.44E-10,,
,7.314003,1.45E-10,,
,7.316003,1.47E-10,,
,7.318003,1.47E-10,,
,7.320003,1.48E-10,,
,7.322003,1.48E-10,,
,7.324003,1.49E-10,,
,7.326003,1.49E-10,,
,7.328003,1.50E-10,,
,7.330003,1.51E-10,,
,7.332003,1.52E-10,,
,7.334003,1.53E-10,,
,7.336003,1.53E-10,,
,7.338003,1.53E-10,,
,7.340003,1.53E-10,,
,7.342003,1.53E-10,,
,7.344003,1.54E-10,,
,7.346003,1.54E-10,,
,7.348003,1.55E-10,,
,7.350003,1.55E-10,,
,7.352003,1.55E-10,,
,7.354003,1.55E-10,,
,7.356003,1.54E-10,,
,7.358003,1.54E-10,,
,7.360003,1.54E-10,,
,7.362003,1.54E-10,,
,7.364003,1.55E-10,,
,7.366003,1.55E-10,,
,7.368003,1.55E-10,,
,7.370003,1.55E-10,,
,7.372003,1.54E-10,,
,7.374003,1.54E-10,,
,7.376003,1.53E-10,,
,7.378003,1.54E-10,,
,7.380003,1.54E-10,,
,7.382003,1.54E-10,,
,7.384003,1.54E-10,,
,7.386003,1.53E-10,,
,7.388003,1.52E-10,,
,7.390003,1.52E-10,,
,7.392003,1.51E-10,,
,7.394003,1.51E-10,,
,7.396003,1.51E-10,,
,7.398003,1.51E-10,,
,7.400003,1.51E-10,,
,7.402003,1.50E-10,,
,7.404003,1.49E-10,,
,7.406003,1.48E-10,,
,7.408003,1.47E-10,,
,7.410003,1.47E-10,,
,7.412003,1.47E-10,,
,7.414003,1.47E-10,,
,7.416003,1.46E-10,,
,7.418003,1.45E-10,,
,7.420003,1.44E-10,,
,7.422003,1.43E-10,,
,7.424003,1.42E-10,,
,7.426003,1.41E-10,,
,7.428003,1.40E-10,,
,7.430003,1.40E-10,,
,7.432003,1.40E-10,,
,7.434003,1.40E-10,,
,7.436003,1.38E-10,,
,7.438003,1.37E-10,,
,7.440003,1.36E-10,,
,7.442003,1.35E-10,,
,7.444003,1.34E-10,,
,7.446003,1.34E-10,,
,7.448003,1.34E-10,,
,7.450003,1.34E-10,,
,7.452003,1.32E-10,,
,7.454003,1.31E-10,,
,7.456003,1.30E-10,,
,7.458003,1.29E-10,,
,7.460003,1.28E-10,,
,7.462003,1.28E-10,,
,7.464003,1.28E-10,,
,7.466003,1.28E-10,,
,7.468003,1.28E-10,,
,7.470003,1.26E-10,,
,7.472003,1.25E-10,,
,7.474003,1.24E-10,,
,7.476003,1.24E-10,,
,7.478003,1.23E-10,,
,7.480003,1.23E-10,,
,7.482003,1.23E-10,,
,7.484003,1.22E-10,,
,7.486003,1.21E-10,,
,7.488003,1.20E-10,,
,7.490003,1.19E-10,,
,7.492003,1.18E-10,,
,7.494003,1.18E-10,,
,7.496003,1.18E-10,,
,7.498003,1.18E-10,,
,7.500003,1.17E-10,,
,7.502003,1.16E-10,,
,7.504003,1.16E-10,,
,7.506003,1.14E-10,,
,7.508003,1.14E-10,,
,7.510003,1.13E-10,,
,7.512003,1.12E-10,,
,7.514003,1.12E-10,,
,7.516003,1.11E-10,,
,7.518003,1.10E-10,,
,7.520003,1.09E-10,,
,7.522003,1.07E-10,,
,7.524003,1.06E-10,,
,7.526003,1.06E-10,,
,7.528003,1.05E-10,,
,7.530003,1.05E-10,,
,7.532003,1.04E-10,,
,7.534003,1.03E-10,,
,7.536003,1.02E-10,,
,7.538003,9.99E-11,,
,7.540003,9.85E-11,,
,7.542003,9.72E-11,,
,7.544003,9.65E-11,,
,7.546003,9.62E-11,,
,7.548003,9.55E-11,,
,7.550003,9.47E-11,,
,7.552003,9.33E-11,,
,7.554003,9.20E-11,,
,7.556003,9.04E-11,,
,7.558003,8.91E-11,,
,7.560003,8.82E-11,,
,7.562003,8.77E-11,,
,7.564003,8.73E-11,,
,7.566003,8.63E-11,,
,7.568003,8.51E-11,,
,7.570003,8.33E-11,,
,7.572003,8.15E-11,,
,7.574003,7.98E-11,,
,7.576003,7.89E-11,,
,7.578003,7.81E-11,,
,7.580003,7.76E-11,,
,7.582003,7.67E-11,,
,7.584003,7.56E-11,,
,7.586003,7.38E-11,,
,7.588003,7.20E-11,,
,7.590003,7.05E-11,,
,7.592003,6.92E-11,,
,7.594003,6.85E-11,,
,7.596003,6.78E-11,,
,7.598003,6.71E-11,,
,7.600003,6.59E-11,,
,7.602003,6.45E-11,,
,7.604003,6.29E-11,,
,7.606003,6.11E-11,,
,7.608003,5.96E-11,,
,7.610003,5.85E-11,,
,7.612003,5.77E-11,,
,7.614003,5.70E-11,,
,7.616003,5.61E-11,,
,7.618003,5.49E-11,,
,7.620003,5.32E-11,,
,7.622003,5.14E-11,,
,7.624003,4.98E-11,,
,7.626003,4.87E-11,,
,7.628003,4.80E-11,,
,7.630003,4.75E-11,,
,7.632003,4.68E-11,,
,7.634003,4.57E-11,,
,7.636003,4.40E-11,,
,7.638003,4.25E-11,,
,7.640003,4.09E-11,,
,7.642003,3.99E-11,,
,7.644003,3.92E-11,,
,7.646003,3.87E-11,,
,7.648003,3.80E-11,,
,7.650003,3.70E-11,,
,7.652003,3.57E-11,,
,7.654003,3.44E-11,,
,7.656003,3.28E-11,,
,7.658003,3.14E-11,,
,7.660003,3.04E-11,,
,7.662003,2.98E-11,,
,7.664003,2.96E-11,,
,7.666003,2.92E-11,,
,7.668003,2.84E-11,,
,7.670003,2.71E-11,,
,7.672003,2.61E-11,,
,7.674003,2.49E-11,,
,7.676003,2.41E-11,,
,7.678003,2.35E-11,,
,7.680003,2.35E-11,,
,7.682003,2.33E-11,,
,7.684003,2.27E-11,,
,7.686003,2.18E-11,,
,7.688003,2.06E-11,,
,7.690003,1.94E-11,,
,7.692003,1.88E-11,,
,7.694003,1.88E-11,,
,7.696003,1.90E-11,,
,7.698003,1.88E-11,,
,7.700003,1.83E-11,,
,7.702003,1.76E-11,,
,7.704003,1.69E-11,,
,7.706003,1.59E-11,,
,7.708003,1.53E-11,,
,7.710003,1.49E-11,,
,7.712003,1.51E-11,,
,7.714003,1.53E-11,,
,7.716003,1.53E-11,,
,7.718003,1.48E-11,,
,7.720003,1.38E-11,,
,7.722003,1.29E-11,,
,7.724003,1.25E-11,,
,7.726003,1.25E-11,,
,7.728003,1.30E-11,,
,7.730003,1.32E-11,,
,7.732003,1.35E-11,,
,7.734003,1.33E-11,,
,7.736003,1.30E-11,,
,7.738003,1.22E-11,,
,7.740003,1.18E-11,,
,7.742003,1.16E-11,,
,7.744003,1.19E-11,,
,7.746003,1.23E-11,,
,7.748003,1.28E-11,,
,7.750003,1.30E-11,,
,7.752003,1.29E-11,,
,7.754003,1.23E-11,,
,7.756003,1.18E-11,,
,7.758003,1.17E-11,,
,7.760003,1.21E-11,,
,7.762003,1.28E-11,,
,7.764003,1.38E-11,,
,7.766003,1.45E-11,,
,7.768003,1.48E-11,,
,7.770003,1.45E-11,,
,7.772003,1.45E-11,,
,7.774003,1.47E-11,,
,7.776003,1.51E-11,,
,7.778003,1.58E-11,,
,7.780003,1.67E-11,,
,7.782003,1.74E-11,,
,7.784003,1.79E-11,,
,7.786003,1.78E-11,,
,7.788003,1.80E-11,,
,7.790003,1.80E-11,,
,7.792003,1.88E-11,,
,7.794003,1.97E-11,,
,7.796003,2.11E-11,,
,7.798003,2.23E-11,,
,7.800003,2.33E-11,,
,7.802003,2.38E-11,,
,7.804003,2.40E-11,,
,7.806003,2.42E-11,,
,7.808003,2.50E-11,,
,7.810003,2.58E-11,,
,7.812003,2.70E-11,,
,7.814003,2.83E-11,,
,7.816003,2.97E-11,,
,7.818003,3.08E-11,,
,7.820003,3.13E-11,,
,7.822003,3.19E-11,,
,7.824003,3.26E-11,,
,7.826003,3.37E-11,,
,7.828003,3.53E-11,,
,7.830003,3.68E-11,,
,7.832003,3.84E-11,,
,7.834003,3.93E-11,,
,7.836003,4.02E-11,,
,7.838003,4.07E-11,,
,7.840003,4.14E-11,,
,7.842003,4.22E-11,,
,7.844003,4.35E-11,,
,7.846003,4.50E-11,,
,7.848003,4.64E-11,,
,7.850003,4.76E-11,,
,7.852003,4.87E-11,,
,7.854003,4.95E-11,,
,7.856003,4.99E-11,,
,7.858003,5.05E-11,,
,7.860003,5.17E-11,,
,7.862003,5.34E-11,,
,7.864003,5.50E-11,,
,7.866003,5.62E-11,,
,7.868003,5.69E-11,,
,7.870003,5.74E-11,,
,7.872003,5.78E-11,,
,7.874003,5.85E-11,,
,7.876003,5.93E-11,,
,7.878003,6.07E-11,,
,7.880003,6.22E-11,,
,7.882003,6.36E-11,,
,7.884003,6.47E-11,,
,7.886003,6.54E-11,,
,7.888003,6.57E-11,,
,7.890003,6.63E-11,,
,7.892003,6.74E-11,,
,7.894003,6.89E-11,,
,7.896003,7.04E-11,,
,7.898003,7.21E-11,,
,7.900003,7.37E-11,,
,7.902003,7.48E-11,,
,7.904003,7.54E-11,,
,7.906003,7.62E-11,,
,7.908003,7.76E-11,,
,7.910003,7.93E-11,,
,7.912003,8.14E-11,,
,7.914003,8.32E-11,,
,7.916003,8.50E-11,,
,7.918003,8.64E-11,,
,7.920003,8.75E-11,,
,7.922003,8.85E-11,,
,7.924003,8.97E-11,,
,7.926003,9.13E-11,,
,7.928003,9.32E-11,,
,7.930003,9.50E-11,,
,7.932003,9.69E-11,,
,7.934003,9.82E-11,,
,7.936003,9.94E-11,,
,7.938003,1.00E-10,,
,7.940003,1.01E-10,,
,7.942003,1.02E-10,,
,7.944003,1.04E-10,,
,7.946003,1.06E-10,,
,7.948003,1.07E-10,,
,7.950003,1.09E-10,,
,7.952003,1.09E-10,,
,7.954003,1.10E-10,,
,7.956003,1.10E-10,,
,7.958003,1.11E-10,,
,7.960003,1.12E-10,,
,7.962003,1.13E-10,,
,7.964003,1.15E-10,,
,7.966003,1.16E-10,,
,7.968003,1.16E-10,,
,7.970003,1.16E-10,,
,7.972003,1.16E-10,,
,7.974003,1.16E-10,,
,7.976003,1.17E-10,,
,7.978003,1.18E-10,,
,7.980003,1.19E-10,,
,7.982003,1.19E-10,,
,7.984003,1.19E-10,,
,7.986003,1.19E-10,,
,7.988003,1.19E-10,,
,7.990003,1.19E-10,,
,7.992003,1.19E-10,,
,7.994003,1.19E-10,,
,7.996003,1.20E-10,,
,7.998003,1.21E-10,,
,8.000003,1.21E-10,,
,8.002003,1.21E-10,,
,8.004003,1.20E-10,,
,8.006003,1.19E-10,,
,8.008003,1.19E-10,,
,8.010003,1.19E-10,,
,8.012003,1.20E-10,,
,8.014003,1.20E-10,,
,8.016003,1.20E-10,,
,8.018003,1.20E-10,,
,8.020003,1.19E-10,,
,8.022003,1.18E-10,,
,8.024003,1.17E-10,,
,8.026003,1.17E-10,,
,8.028003,1.17E-10,,
,8.030003,1.17E-10,,
,8.032003,1.17E-10,,
,8.034003,1.16E-10,,
,8.036003,1.15E-10,,
,8.038003,1.15E-10,,
,8.040003,1.14E-10,,
,8.042003,1.13E-10,,
,8.044003,1.13E-10,,
,8.046003,1.13E-10,,
,8.048003,1.13E-10,,
,8.050003,1.12E-10,,
,8.052003,1.11E-10,,
,8.054003,1.10E-10,,
,8.056003,1.09E-10,,
,8.058003,1.08E-10,,
,8.060003,1.07E-10,,
,8.062003,1.07E-10,,
,8.064003,1.07E-10,,
,8.066003,1.06E-10,,
,8.068003,1.06E-10,,
,8.070003,1.05E-10,,
,8.072003,1.03E-10,,
,8.074003,1.02E-10,,
,8.076003,1.01E-10,,
,8.078003,1.01E-10,,
,8.080003,1.01E-10,,
,8.082003,1.00E-10,,
,8.084003,9.94E-11,,
,8.086003,9.80E-11,,
,8.088003,9.64E-11,,
,8.090003,9.51E-11,,
,8.092003,9.41E-11,,
,8.094003,9.37E-11,,
,8.096003,9.35E-11,,
,8.098003,9.32E-11,,
,8.100003,9.23E-11,,
,8.102003,9.11E-11,,
,8.104003,8.97E-11,,
,8.106003,8.84E-11,,
,8.108003,8.71E-11,,
,8.110003,8.64E-11,,
,8.112003,8.60E-11,,
,8.114003,8.56E-11,,
,8.116003,8.49E-11,,
,8.118003,8.39E-11,,
,8.120003,8.26E-11,,
,8.122003,8.15E-11,,
,8.124003,8.02E-11,,
,8.126003,7.94E-11,,
,8.128003,7.90E-11,,
,8.130003,7.88E-11,,
,8.132003,7.86E-11,,
,8.134003,7.80E-11,,
,8.136003,7.72E-11,,
,8.138003,7.60E-11,,
,8.140003,7.48E-11,,
,8.142003,7.39E-11,,
,8.144003,7.34E-11,,
,8.146003,7.32E-11,,
,8.148003,7.30E-11,,
,8.150003,7.28E-11,,
,8.152003,7.19E-11,,
,8.154003,7.09E-11,,
,8.156003,6.99E-11,,
,8.158003,6.92E-11,,
,8.160003,6.88E-11,,
,8.162003,6.89E-11,,
,8.164003,6.91E-11,,
,8.166003,6.92E-11,,
,8.168003,6.88E-11,,
,8.170003,6.77E-11,,
,8.172003,6.69E-11,,
,8.174003,6.60E-11,,
,8.176003,6.58E-11,,
,8.178003,6.58E-11,,
,8.180003,6.60E-11,,
,8.182003,6.61E-11,,
,8.184003,6.57E-11,,
,8.186003,6.50E-11,,
,8.188003,6.43E-11,,
,8.190003,6.39E-11,,
,8.192003,6.35E-11,,
,8.194003,6.34E-11,,
,8.196003,6.35E-11,,
,8.198003,6.35E-11,,
,8.200003,6.35E-11,,
,8.202003,6.30E-11,,
,8.204003,6.23E-11,,
,8.206003,6.17E-11,,
,8.208003,6.11E-11,,
,8.210003,6.10E-11,,
,8.212003,6.11E-11,,
,8.214003,6.14E-11,,
,8.216003,6.13E-11,,
,8.218003,6.10E-11,,
,8.220003,6.04E-11,,
,8.222003,5.98E-11,,
,8.224003,5.92E-11,,
,8.226003,5.90E-11,,
,8.228003,5.96E-11,,
,8.230003,5.99E-11,,
,8.232003,6.03E-11,,
,8.234003,6.01E-11,,
,8.236003,5.97E-11,,
,8.238003,5.90E-11,,
,8.240003,5.84E-11,,
,8.242003,5.82E-11,,
,8.244003,5.83E-11,,
,8.246003,5.87E-11,,
,8.248003,5.91E-11,,
,8.250003,5.92E-11,,
,8.252003,5.90E-11,,
,8.254003,5.86E-11,,
,8.256003,5.81E-11,,
,8.258003,5.79E-11,,
,8.260003,5.82E-11,,
,8.262003,5.87E-11,,
,8.264003,5.93E-11,,
,8.266003,5.99E-11,,
,8.268003,6.00E-11,,
,8.270003,5.97E-11,,
,8.272003,5.91E-11,,
,8.274003,5.90E-11,,
,8.276003,5.91E-11,,
,8.278003,5.96E-11,,
,8.280003,6.03E-11,,
,8.282003,6.10E-11,,
,8.284003,6.12E-11,,
,8.286003,6.10E-11,,
,8.288003,6.04E-11,,
,8.290003,6.04E-11,,
,8.292003,6.05E-11,,
,8.294003,6.10E-11,,
,8.296003,6.14E-11,,
,8.298003,6.17E-11,,
,8.300003,6.21E-11,,
,8.302003,6.20E-11,,
,8.304003,6.17E-11,,
,8.306003,6.14E-11,,
,8.308003,6.13E-11,,
,8.310003,6.16E-11,,
,8.312003,6.20E-11,,
,8.314003,6.26E-11,,
,8.316003,6.29E-11,,
,8.318003,6.29E-11,,
,8.320003,6.25E-11,,
,8.322003,6.20E-11,,
,8.324003,6.18E-11,,
,8.326003,6.20E-11,,
,8.328003,6.25E-11,,
,8.330003,6.29E-11,,
,8.332003,6.34E-11,,
,8.334003,6.35E-11,,
,8.336003,6.33E-11,,
,8.338003,6.28E-11,,
,8.340003,6.23E-11,,
,8.342003,6.22E-11,,
,8.344003,6.25E-11,,
,8.346003,6.30E-11,,
,8.348003,6.34E-11,,
,8.350003,6.35E-11,,
,8.352003,6.30E-11,,
,8.354003,6.25E-11,,
,8.356003,6.18E-11,,
,8.358003,6.18E-11,,
,8.360003,6.20E-11,,
,8.362003,6.26E-11,,
,8.364003,6.31E-11,,
,8.366003,6.35E-11,,
,8.368003,6.39E-11,,
,8.370003,6.35E-11,,
,8.372003,6.32E-11,,
,8.374003,6.29E-11,,
,8.376003,6.31E-11,,
,8.378003,6.32E-11,,
,8.380003,6.37E-11,,
,8.382003,6.40E-11,,
,8.384003,6.41E-11,,
,8.386003,6.35E-11,,
,8.388003,6.29E-11,,
,8.390003,6.26E-11,,
,8.392003,6.26E-11,,
,8.394003,6.31E-11,,
,8.396003,6.35E-11,,
,8.398003,6.40E-11,,
,8.400003,6.40E-11,,
,8.402003,6.40E-11,,
,8.404003,6.36E-11,,
,8.406003,6.32E-11,,
,8.408003,6.29E-11,,
,8.410003,6.31E-11,,
,8.412003,6.37E-11,,
,8.414003,6.41E-11,,
,8.416003,6.41E-11,,
,8.418003,6.37E-11,,
,8.420003,6.32E-11,,
,8.422003,6.28E-11,,
,8.424003,6.26E-11,,
,8.426003,6.27E-11,,
,8.428003,6.29E-11,,
,8.430003,6.32E-11,,
,8.432003,6.39E-11,,
,8.434003,6.41E-11,,
,8.436003,6.39E-11,,
,8.438003,6.31E-11,,
,8.440003,6.25E-11,,
,8.442003,6.22E-11,,
,8.444003,6.28E-11,,
,8.446003,6.34E-11,,
,8.448003,6.40E-11,,
,8.450003,6.37E-11,,
,8.452003,6.37E-11,,
,8.454003,6.31E-11,,
,8.456003,6.28E-11,,
,8.458003,6.23E-11,,
,8.460003,6.27E-11,,
,8.462003,6.32E-11,,
,8.464003,6.37E-11,,
,8.466003,6.40E-11,,
,8.468003,6.37E-11,,
,8.470003,6.32E-11,,
,8.472003,6.28E-11,,
,8.474003,6.25E-11,,
,8.476003,6.26E-11,,
,8.478003,6.28E-11,,
,8.480003,6.33E-11,,
,8.482003,6.36E-11,,
,8.484003,6.35E-11,,
,8.486003,6.28E-11,,
,8.488003,6.18E-11,,
,8.490003,6.11E-11,,
,8.492003,6.07E-11,,
,8.494003,6.07E-11,,
,8.496003,6.11E-11,,
,8.498003,6.12E-11,,
,8.500003,6.11E-11,,
,8.502003,6.05E-11,,
,8.504003,5.97E-11,,
,8.506003,5.90E-11,,
,8.508003,5.85E-11,,
,8.510003,5.84E-11,,
,8.512003,5.83E-11,,
,8.514003,5.84E-11,,
,8.516003,5.82E-11,,
,8.518003,5.75E-11,,
,8.520003,5.66E-11,,
,8.522003,5.58E-11,,
,8.524003,5.50E-11,,
,8.526003,5.45E-11,,
,8.528003,5.42E-11,,
,8.530003,5.41E-11,,
,8.532003,5.42E-11,,
,8.534003,5.38E-11,,
,8.536003,5.32E-11,,
,8.538003,5.20E-11,,
,8.540003,5.13E-11,,
,8.542003,5.06E-11,,
,8.544003,5.06E-11,,
,8.546003,5.06E-11,,
,8.548003,5.05E-11,,
,8.550003,5.01E-11,,
,8.552003,4.95E-11,,
,8.554003,4.85E-11,,
,8.556003,4.76E-11,,
,8.558003,4.71E-11,,
,8.560003,4.71E-11,,
,8.562003,4.72E-11,,
,8.564003,4.70E-11,,
,8.566003,4.68E-11,,
,8.568003,4.62E-11,,
,8.570003,4.56E-11,,
,8.572003,4.47E-11,,
,8.574003,4.40E-11,,
,8.576003,4.38E-11,,
,8.578003,4.38E-11,,
,8.580003,4.40E-11,,
,8.582003,4.39E-11,,
,8.584003,4.33E-11,,
,8.586003,4.26E-11,,
,8.588003,4.15E-11,,
,8.590003,4.11E-11,,
,8.592003,4.07E-11,,
,8.594003,4.08E-11,,
,8.596003,4.07E-11,,
,8.598003,4.09E-11,,
,8.600003,4.06E-11,,
,8.602003,3.98E-11,,
,8.604003,3.86E-11,,
,8.606003,3.78E-11,,
,8.608003,3.72E-11,,
,8.610003,3.72E-11,,
,8.612003,3.72E-11,,
,8.614003,3.73E-11,,
,8.616003,3.69E-11,,
,8.618003,3.63E-11,,
,8.620003,3.54E-11,,
,8.622003,3.44E-11,,
,8.624003,3.40E-11,,
,8.626003,3.36E-11,,
,8.628003,3.38E-11,,
,8.630003,3.40E-11,,
,8.632003,3.42E-11,,
,8.634003,3.40E-11,,
,8.636003,3.31E-11,,
,8.638003,3.25E-11,,
,8.640003,3.19E-11,,
,8.642003,3.15E-11,,
,8.644003,3.13E-11,,
,8.646003,3.14E-11,,
,8.648003,3.16E-11,,
,8.650003,3.14E-11,,
,8.652003,3.09E-11,,
,8.654003,3.02E-11,,
,8.656003,2.97E-11,,
,8.658003,2.94E-11,,
,8.660003,2.94E-11,,
,8.662003,2.98E-11,,
,8.664003,3.05E-11,,
,8.666003,3.07E-11,,
,8.668003,3.04E-11,,
,8.670003,2.97E-11,,
,8.672003,2.91E-11,,
,8.674003,2.87E-11,,
,8.676003,2.86E-11,,
,8.678003,2.90E-11,,
,8.680003,2.94E-11,,
,8.682003,2.97E-11,,
,8.684003,2.96E-11,,
,8.686003,2.92E-11,,
,8.688003,2.85E-11,,
,8.690003,2.81E-11,,
,8.692003,2.81E-11,,
,8.694003,2.82E-11,,
,8.696003,2.86E-11,,
,8.698003,2.89E-11,,
,8.700003,2.91E-11,,
,8.702003,2.85E-11,,
,8.704003,2.79E-11,,
,8.706003,2.74E-11,,
,8.708003,2.75E-11,,
,8.710003,2.77E-11,,
,8.712003,2.82E-11,,
,8.714003,2.86E-11,,
,8.716003,2.91E-11,,
,8.718003,2.89E-11,,
,8.720003,2.83E-11,,
,8.722003,2.75E-11,,
,8.724003,2.69E-11,,
,8.726003,2.67E-11,,
,8.728003,2.70E-11,,
,8.730003,2.75E-11,,
,8.732003,2.77E-11,,
,8.734003,2.76E-11,,
,8.736003,2.72E-11,,
,8.738003,2.67E-11,,
,8.740003,2.63E-11,,
,8.742003,2.63E-11,,
,8.744003,2.66E-11,,
,8.746003,2.70E-11,,
,8.748003,2.72E-11,,
,8.750003,2.71E-11,,
,8.752003,2.65E-11,,
,8.754003,2.56E-11,,
,8.756003,2.50E-11,,
,8.758003,2.48E-11,,
,8.760003,2.48E-11,,
,8.762003,2.48E-11,,
,8.764003,2.50E-11,,
,8.766003,2.48E-11,,
,8.768003,2.46E-11,,
,8.770003,2.38E-11,,
,8.772003,2.32E-11,,
,8.774003,2.27E-11,,
,8.776003,2.26E-11,,
,8.778003,2.27E-11,,
,8.780003,2.27E-11,,
,8.782003,2.26E-11,,
,8.784003,2.25E-11,,
,8.786003,2.18E-11,,
,8.788003,2.10E-11,,
,8.790003,2.01E-11,,
,8.792003,1.96E-11,,
,8.794003,1.94E-11,,
,8.796003,1.95E-11,,
,8.798003,1.96E-11,,
,8.800003,1.96E-11,,
,8.802003,1.90E-11,,
,8.804003,1.81E-11,,
,8.806003,1.74E-11,,
,8.808003,1.70E-11,,
,8.810003,1.68E-11,,
,8.812003,1.66E-11,,
,8.814003,1.64E-11,,
,8.816003,1.63E-11,,
,8.818003,1.59E-11,,
,8.820003,1.52E-11,,
,8.822003,1.45E-11,,
,8.824003,1.37E-11,,
,8.826003,1.35E-11,,
,8.828003,1.37E-11,,
,8.830003,1.40E-11,,
,8.832003,1.40E-11,,
,8.834003,1.36E-11,,
,8.836003,1.31E-11,,
,8.838003,1.23E-11,,
,8.840003,1.18E-11,,
,8.842003,1.15E-11,,
,8.844003,1.16E-11,,
,8.846003,1.17E-11,,
,8.848003,1.17E-11,,
,8.850003,1.15E-11,,
,8.852003,1.09E-11,,
,8.854003,1.02E-11,,
,8.856003,9.31E-12,,
,8.858003,8.78E-12,,
,8.860003,8.78E-12,,
,8.862003,9.10E-12,,
,8.864003,9.64E-12,,
,8.866003,9.85E-12,,
,8.868003,9.53E-12,,
,8.870003,8.67E-12,,
,8.872003,7.81E-12,,
,8.874003,7.49E-12,,
,8.876003,7.27E-12,,
,8.878003,7.38E-12,,
,8.880003,7.38E-12,,
,8.882003,7.60E-12,,
,8.884003,7.38E-12,,
,8.886003,6.74E-12,,
,8.888003,5.88E-12,,
,8.890003,5.13E-12,,
,8.892003,5.02E-12,,
,8.894003,5.24E-12,,
,8.896003,5.66E-12,,
,8.898003,5.88E-12,,
,8.900003,5.77E-12,,
,8.902003,5.34E-12,,
,8.904003,4.70E-12,,
,8.906003,4.05E-12,,
,8.908003,3.62E-12,,
,8.910003,3.62E-12,,
,8.912003,3.84E-12,,
,8.914003,4.38E-12,,
,8.916003,4.59E-12,,
,8.918003,4.48E-12,,
,8.920003,3.95E-12,,
,8.922003,3.41E-12,,
,8.924003,3.09E-12,,
,8.926003,3.20E-12,,
,8.928003,3.73E-12,,
,8.930003,4.48E-12,,
,8.932003,4.81E-12,,
,8.934003,4.70E-12,,
,8.936003,4.48E-12,,
,8.938003,4.16E-12,,
,8.940003,3.95E-12,,
,8.942003,3.73E-12,,
,8.944003,4.05E-12,,
,8.946003,4.48E-12,,
,8.948003,5.13E-12,,
,8.950003,5.34E-12,,
,8.952003,5.34E-12,,
,8.954003,4.91E-12,,
,8.956003,4.59E-12,,
,8.958003,4.59E-12,,
,8.960003,5.13E-12,,
,8.962003,5.88E-12,,
,8.964003,6.42E-12,,
,8.966003,6.52E-12,,
,8.968003,6.42E-12,,
,8.970003,6.31E-12,,
,8.972003,6.31E-12,,
,8.974003,6.42E-12,,
,8.976003,6.74E-12,,
,8.978003,7.38E-12,,
,8.980003,8.03E-12,,
,8.982003,8.56E-12,,
,8.984003,8.67E-12,,
,8.986003,8.56E-12,,
,8.988003,8.35E-12,,
,8.990003,8.35E-12,,
,8.992003,8.67E-12,,
,8.994003,9.21E-12,,
,8.996003,9.85E-12,,
,8.998003,1.03E-11,,
,9.000003,1.06E-11,,
,9.002003,1.06E-11,,
,9.004003,1.05E-11,,
,9.006003,1.01E-11,,
,9.008003,9.85E-12,,
,9.010003,1.01E-11,,
,9.012003,1.07E-11,,
,9.014003,1.15E-11,,
,9.016003,1.18E-11,,
,9.018003,1.18E-11,,
,9.020003,1.15E-11,,
,9.022003,1.10E-11,,
,9.024003,1.09E-11,,
,9.026003,1.11E-11,,
,9.028003,1.17E-11,,
,9.030003,1.22E-11,,
,9.032003,1.25E-11,,
,9.034003,1.28E-11,,
,9.036003,1.24E-11,,
,9.038003,1.21E-11,,
,9.040003,1.18E-11,,
,9.042003,1.18E-11,,
,9.044003,1.20E-11,,
,9.046003,1.24E-11,,
,9.048003,1.29E-11,,
,9.050003,1.31E-11,,
,9.052003,1.26E-11,,
,9.054003,1.22E-11,,
,9.056003,1.18E-11,,
,9.058003,1.18E-11,,
,9.060003,1.19E-11,,
,9.062003,1.21E-11,,
,9.064003,1.25E-11,,
,9.066003,1.28E-11,,
,9.068003,1.28E-11,,
,9.070003,1.22E-11,,
,9.072003,1.18E-11,,
,9.074003,1.15E-11,,
,9.076003,1.16E-11,,
,9.078003,1.18E-11,,
,9.080003,1.22E-11,,
,9.082003,1.25E-11,,
,9.084003,1.26E-11,,
,9.086003,1.22E-11,,
,9.088003,1.17E-11,,
,9.090003,1.12E-11,,
,9.092003,1.14E-11,,
,9.094003,1.15E-11,,
,9.096003,1.19E-11,,
,9.098003,1.22E-11,,
,9.100003,1.25E-11,,
,9.102003,1.22E-11,,
,9.104003,1.17E-11,,
,9.106003,1.10E-11,,
,9.108003,1.08E-11,,
,9.110003,1.08E-11,,
,9.112003,1.10E-11,,
,9.114003,1.14E-11,,
,9.116003,1.16E-11,,
,9.118003,1.15E-11,,
,9.120003,1.09E-11,,
,9.122003,1.04E-11,,
,9.124003,9.96E-12,,
,9.126003,1.01E-11,,
,9.128003,1.04E-11,,
,9.130003,1.08E-11,,
,9.132003,1.11E-11,,
,9.134003,1.11E-11,,
,9.136003,1.10E-11,,
,9.138003,1.04E-11,,
,9.140003,9.85E-12,,
,9.142003,9.74E-12,,
,9.144003,1.02E-11,,
,9.146003,1.05E-11,,
,9.148003,1.07E-11,,
,9.150003,1.06E-11,,
,9.152003,1.05E-11,,
,9.154003,1.01E-11,,
,9.156003,9.53E-12,,
,9.158003,9.21E-12,,
,9.160003,9.42E-12,,
,9.162003,9.96E-12,,
,9.164003,1.04E-11,,
,9.166003,1.05E-11,,
,9.168003,1.03E-11,,
,9.170003,9.96E-12,,
,9.172003,9.74E-12,,
,9.174003,9.64E-12,,
,9.176003,9.85E-12,,
,9.178003,1.01E-11,,
,9.180003,1.07E-11,,
,9.182003,1.11E-11,,
,9.184003,1.14E-11,,
,9.186003,1.12E-11,,
,9.188003,1.10E-11,,
,9.190003,1.09E-11,,
,9.192003,1.09E-11,,
,9.194003,1.12E-11,,
,9.196003,1.19E-11,,
,9.198003,1.25E-11,,
,9.200003,1.30E-11,,
,9.202003,1.31E-11,,
,9.204003,1.29E-11,,
,9.206003,1.25E-11,,
,9.208003,1.23E-11,,
,9.210003,1.29E-11,,
,9.212003,1.37E-11,,
,9.214003,1.45E-11,,
,9.216003,1.47E-11,,
,9.218003,1.48E-11,,
,9.220003,1.45E-11,,
,9.222003,1.44E-11,,
,9.224003,1.40E-11,,
,9.226003,1.44E-11,,
,9.228003,1.49E-11,,
,9.230003,1.56E-11,,
,9.232003,1.63E-11,,
,9.234003,1.62E-11,,
,9.236003,1.59E-11,,
,9.238003,1.53E-11,,
,9.240003,1.53E-11,,
,9.242003,1.55E-11,,
,9.244003,1.60E-11,,
,9.246003,1.66E-11,,
,9.248003,1.70E-11,,
,9.250003,1.74E-11,,
,9.252003,1.72E-11,,
,9.254003,1.69E-11,,
,9.256003,1.67E-11,,
,9.258003,1.67E-11,,
,9.260003,1.72E-11,,
,9.262003,1.79E-11,,
,9.264003,1.87E-11,,
,9.266003,1.92E-11,,
,9.268003,1.90E-11,,
,9.270003,1.84E-11,,
,9.272003,1.81E-11,,
,9.274003,1.83E-11,,
,9.276003,1.88E-11,,
,9.278003,1.95E-11,,
,9.280003,2.03E-11,,
,9.282003,2.11E-11,,
,9.284003,2.11E-11,,
,9.286003,2.10E-11,,
,9.288003,2.09E-11,,
,9.290003,2.10E-11,,
,9.292003,2.14E-11,,
,9.294003,2.21E-11,,
,9.296003,2.32E-11,,
,9.298003,2.40E-11,,
,9.300003,2.47E-11,,
,9.302003,2.48E-11,,
,9.304003,2.45E-11,,
,9.306003,2.43E-11,,
,9.308003,2.43E-11,,
,9.310003,2.51E-11,,
,9.312003,2.58E-11,,
,9.314003,2.69E-11,,
,9.316003,2.77E-11,,
,9.318003,2.81E-11,,
,9.320003,2.82E-11,,
,9.322003,2.80E-11,,
,9.324003,2.80E-11,,
,9.326003,2.85E-11,,
,9.328003,2.96E-11,,
,9.330003,3.06E-11,,
,9.332003,3.13E-11,,
,9.334003,3.16E-11,,
,9.336003,3.19E-11,,
,9.338003,3.18E-11,,
,9.340003,3.18E-11,,
,9.342003,3.23E-11,,
,9.344003,3.33E-11,,
,9.346003,3.44E-11,,
,9.348003,3.54E-11,,
,9.350003,3.59E-11,,
,9.352003,3.63E-11,,
,9.354003,3.62E-11,,
,9.356003,3.64E-11,,
,9.358003,3.70E-11,,
,9.360003,3.81E-11,,
,9.362003,3.94E-11,,
,9.364003,4.04E-11,,
,9.366003,4.15E-11,,
,9.368003,4.24E-11,,
,9.370003,4.28E-11,,
,9.372003,4.35E-11,,
,9.374003,4.40E-11,,
,9.376003,4.55E-11,,
,9.378003,4.68E-11,,
,9.380003,4.86E-11,,
,9.382003,5.02E-11,,
,9.384003,5.16E-11,,
,9.386003,5.26E-11,,
,9.388003,5.33E-11,,
,9.390003,5.44E-11,,
,9.392003,5.57E-11,,
,9.394003,5.75E-11,,
,9.396003,5.96E-11,,
,9.398003,6.17E-11,,
,9.400003,6.32E-11,,
,9.402003,6.43E-11,,
,9.404003,6.52E-11,,
,9.406003,6.63E-11,,
,9.408003,6.78E-11,,
,9.410003,6.92E-11,,
,9.412003,7.09E-11,,
,9.414003,7.23E-11,,
,9.416003,7.37E-11,,
,9.418003,7.45E-11,,
,9.420003,7.51E-11,,
,9.422003,7.53E-11,,
,9.424003,7.60E-11,,
,9.426003,7.67E-11,,
,9.428003,7.80E-11,,
,9.430003,7.92E-11,,
,9.432003,8.07E-11,,
,9.434003,8.15E-11,,
,9.436003,8.19E-11,,
,9.438003,8.18E-11,,
,9.440003,8.22E-11,,
,9.442003,8.30E-11,,
,9.444003,8.40E-11,,
,9.446003,8.48E-11,,
,9.448003,8.56E-11,,
,9.450003,8.59E-11,,
,9.452003,8.59E-11,,
,9.454003,8.50E-11,,
,9.456003,8.42E-11,,
,9.458003,8.38E-11,,
,9.460003,8.38E-11,,
,9.462003,8.39E-11,,
,9.464003,8.37E-11,,
,9.466003,8.34E-11,,
,9.468003,8.25E-11,,
,9.470003,8.15E-11,,
,9.472003,8.00E-11,,
,9.474003,7.88E-11,,
,9.476003,7.80E-11,,
,9.478003,7.76E-11,,
,9.480003,7.74E-11,,
,9.482003,7.65E-11,,
,9.484003,7.52E-11,,
,9.486003,7.33E-11,,
,9.488003,7.14E-11,,
,9.490003,6.96E-11,,
,9.492003,6.81E-11,,
,9.494003,6.73E-11,,
,9.496003,6.63E-11,,
,9.498003,6.55E-11,,
,9.500003,6.39E-11,,
,9.502003,6.26E-11,,
,9.504003,6.08E-11,,
,9.506003,5.93E-11,,
,9.508003,5.78E-11,,
,9.510003,5.69E-11,,
,9.512003,5.61E-11,,
,9.514003,5.54E-11,,
,9.516003,5.45E-11,,
,9.518003,5.31E-11,,
,9.520003,5.14E-11,,
,9.522003,4.97E-11,,
,9.524003,4.87E-11,,
,9.526003,4.79E-11,,
,9.528003,4.71E-11,,
,9.530003,4.66E-11,,
,9.532003,4.61E-11,,
,9.534003,4.54E-11,,
,9.536003,4.41E-11,,
,9.538003,4.30E-11,,
,9.540003,4.22E-11,,
,9.542003,4.14E-11,,
,9.544003,4.09E-11,,
,9.546003,4.09E-11,,
,9.548003,4.10E-11,,
,9.550003,4.07E-11,,
,9.552003,3.97E-11,,
,9.554003,3.88E-11,,
,9.556003,3.80E-11,,
,9.558003,3.77E-11,,
,9.560003,3.75E-11,,
,9.562003,3.80E-11,,
,9.564003,3.85E-11,,
,9.566003,3.87E-11,,
,9.568003,3.85E-11,,
,9.570003,3.77E-11,,
,9.572003,3.70E-11,,
,9.574003,3.67E-11,,
,9.576003,3.72E-11,,
,9.578003,3.80E-11,,
,9.580003,3.88E-11,,
,9.582003,3.94E-11,,
,9.584003,3.97E-11,,
,9.586003,3.98E-11,,
,9.588003,3.96E-11,,
,9.590003,3.95E-11,,
,9.592003,3.97E-11,,
,9.594003,4.09E-11,,
,9.596003,4.22E-11,,
,9.598003,4.37E-11,,
,9.600003,4.43E-11,,
,9.602003,4.48E-11,,
,9.604003,4.51E-11,,
,9.606003,4.56E-11,,
,9.608003,4.62E-11,,
,9.610003,4.73E-11,,
,9.612003,4.86E-11,,
,9.614003,5.01E-11,,
,9.616003,5.13E-11,,
,9.618003,5.19E-11,,
,9.620003,5.23E-11,,
,9.622003,5.24E-11,,
,9.624003,5.29E-11,,
,9.626003,5.38E-11,,
,9.628003,5.53E-11,,
,9.630003,5.68E-11,,
,9.632003,5.82E-11,,
,9.634003,5.89E-11,,
,9.636003,5.92E-11,,
,9.638003,5.94E-11,,
,9.640003,5.96E-11,,
,9.642003,6.04E-11,,
,9.644003,6.14E-11,,
,9.646003,6.30E-11,,
,9.648003,6.42E-11,,
,9.650003,6.50E-11,,
,9.652003,6.52E-11,,
,9.654003,6.51E-11,,
,9.656003,6.54E-11,,
,9.658003,6.59E-11,,
,9.660003,6.69E-11,,
,9.662003,6.79E-11,,
,9.664003,6.90E-11,,
,9.666003,6.99E-11,,
,9.668003,7.03E-11,,
,9.670003,7.03E-11,,
,9.672003,7.04E-11,,
,9.674003,7.09E-11,,
,9.676003,7.17E-11,,
,9.678003,7.28E-11,,
,9.680003,7.38E-11,,
,9.682003,7.50E-11,,
,9.684003,7.54E-11,,
,9.686003,7.58E-11,,
,9.688003,7.56E-11,,
,9.690003,7.59E-11,,
,9.692003,7.63E-11,,
,9.694003,7.75E-11,,
,9.696003,7.89E-11,,
,9.698003,8.01E-11,,
,9.700003,8.11E-11,,
,9.702003,8.16E-11,,
,9.704003,8.18E-11,,
,9.706003,8.18E-11,,
,9.708003,8.21E-11,,
,9.710003,8.29E-11,,
,9.712003,8.39E-11,,
,9.714003,8.50E-11,,
,9.716003,8.60E-11,,
,9.718003,8.64E-11,,
,9.720003,8.64E-11,,
,9.722003,8.62E-11,,
,9.724003,8.64E-11,,
,9.726003,8.73E-11,,
,9.728003,8.84E-11,,
,9.730003,8.95E-11,,
,9.732003,9.03E-11,,
,9.734003,9.06E-11,,
,9.736003,9.06E-11,,
,9.738003,9.04E-11,,
,9.740003,9.05E-11,,
,9.742003,9.08E-11,,
,9.744003,9.17E-11,,
,9.746003,9.24E-11,,
,9.748003,9.33E-11,,
,9.750003,9.34E-11,,
,9.752003,9.34E-11,,
,9.754003,9.28E-11,,
,9.756003,9.25E-11,,
,9.758003,9.23E-11,,
,9.760003,9.27E-11,,
,9.762003,9.34E-11,,
,9.764003,9.39E-11,,
,9.766003,9.40E-11,,
,9.768003,9.39E-11,,
,9.770003,9.33E-11,,
,9.772003,9.27E-11,,
,9.774003,9.23E-11,,
,9.776003,9.23E-11,,
,9.778003,9.24E-11,,
,9.780003,9.25E-11,,
,9.782003,9.27E-11,,
,9.784003,9.23E-11,,
,9.786003,9.15E-11,,
,9.788003,9.03E-11,,
,9.790003,8.93E-11,,
,9.792003,8.85E-11,,
,9.794003,8.82E-11,,
,9.796003,8.81E-11,,
,9.798003,8.80E-11,,
,9.800003,8.75E-11,,
,9.802003,8.65E-11,,
,9.804003,8.50E-11,,
,9.806003,8.37E-11,,
,9.808003,8.30E-11,,
,9.810003,8.26E-11,,
,9.812003,8.24E-11,,
,9.814003,8.18E-11,,
,9.816003,8.10E-11,,
,9.818003,7.97E-11,,
,9.820003,7.81E-11,,
,9.822003,7.67E-11,,
,9.824003,7.56E-11,,
,9.826003,7.47E-11,,
,9.828003,7.38E-11,,
,9.830003,7.33E-11,,
,9.832003,7.27E-11,,
,9.834003,7.16E-11,,
,9.836003,7.00E-11,,
,9.838003,6.83E-11,,
,9.840003,6.68E-11,,
,9.842003,6.57E-11,,
,9.844003,6.46E-11,,
,9.846003,6.35E-11,,
,9.848003,6.22E-11,,
,9.850003,6.11E-11,,
,9.852003,5.93E-11,,
,9.854003,5.73E-11,,
,9.856003,5.50E-11,,
,9.858003,5.31E-11,,
,9.860003,5.17E-11,,
,9.862003,5.06E-11,,
,9.864003,4.97E-11,,
,9.866003,4.82E-11,,
,9.868003,4.62E-11,,
,9.870003,4.40E-11,,
,9.872003,4.18E-11,,
,9.874003,3.99E-11,,
,9.876003,3.84E-11,,
,9.878003,3.73E-11,,
,9.880003,3.62E-11,,
,9.882003,3.45E-11,,
,9.884003,3.27E-11,,
,9.886003,3.06E-11,,
,9.888003,2.85E-11,,
,9.890003,2.64E-11,,
,9.892003,2.47E-11,,
,9.894003,2.35E-11,,
,9.896003,2.27E-11,,
,9.898003,2.21E-11,,
,9.900003,2.10E-11,,
,9.902003,1.93E-11,,
,9.904003,1.77E-11,,
,9.906003,1.62E-11,,
,9.908003,1.52E-11,,
,9.910003,1.45E-11,,
,9.912003,1.40E-11,,
,9.914003,1.36E-11,,
,9.916003,1.30E-11,,
,9.918003,1.18E-11,,
,9.920003,1.05E-11,,
,9.922003,9.10E-12,,
,9.924003,8.35E-12,,
,9.926003,7.81E-12,,
,9.928003,7.70E-12,,
,9.930003,7.81E-12,,
,9.932003,7.81E-12,,
,9.934003,7.70E-12,,
,9.936003,7.06E-12,,
,9.938003,6.31E-12,,
,9.940003,5.66E-12,,
,9.942003,5.56E-12,,
,9.944003,5.99E-12,,
,9.946003,6.63E-12,,
,9.948003,7.27E-12,,
,9.950003,7.49E-12,,
,9.952003,7.27E-12,,
,9.954003,6.74E-12,,
,9.956003,6.31E-12,,
,9.958003,6.31E-12,,
,9.960003,6.95E-12,,
,9.962003,7.92E-12,,
,9.964003,8.89E-12,,
,9.966003,9.53E-12,,
,9.968003,9.74E-12,,
,9.970003,9.42E-12,,
,9.972003,8.78E-12,,
,9.974003,8.56E-12,,
,9.976003,9.10E-12,,
,9.978003,1.02E-11,,
,9.980003,1.12E-11,,
,9.982003,1.19E-11,,
,9.984003,1.19E-11,,
,9.986003,1.16E-11,,
,9.988003,1.14E-11,,
,9.990003,1.15E-11,,
,9.992003,1.16E-11,,
,9.994003,1.21E-11,,
,9.996003,1.28E-11,,
,9.998003,1.37E-11,,
,10.000003,1.39E-11,,
,10.002003,1.37E-11,,
,10.004003,1.31E-11,,
,10.006003,1.26E-11,,
,10.008003,1.26E-11,,
,10.010003,1.31E-11,,
,10.012003,1.37E-11,,
,10.014003,1.41E-11,,
,10.016003,1.41E-11,,
,10.018003,1.38E-11,,
,10.020003,1.32E-11,,
,10.022003,1.24E-11,,
,10.024003,1.20E-11,,
,10.026003,1.19E-11,,
,10.028003,1.22E-11,,
,10.030003,1.26E-11,,
,10.032003,1.28E-11,,
,10.034003,1.24E-11,,
,10.036003,1.16E-11,,
,10.038003,1.08E-11,,
,10.040003,1.01E-11,,
,10.042003,9.74E-12,,
,10.044003,9.64E-12,,
,10.046003,1.02E-11,,
,10.048003,1.04E-11,,
,10.050003,1.01E-11,,
,10.052003,9.10E-12,,
,10.054003,7.81E-12,,
,10.056003,6.85E-12,,
,10.058003,6.20E-12,,
,10.060003,5.99E-12,,
,10.062003,6.20E-12,,
,10.064003,6.42E-12,,
,10.066003,6.42E-12,,
,10.068003,5.56E-12,,
,10.070003,4.27E-12,,
,10.072003,3.09E-12,,
,10.074003,2.44E-12,,
,10.076003,2.34E-12,,
,10.078003,2.23E-12,,
,10.080003,2.23E-12,,
,10.082003,2.12E-12,,
,10.084003,1.59E-12,,
,10.086003,5.11E-13,,
,10.088003,-1.10E-12,,
,10.090003,-2.17E-12,,
,10.092003,-2.49E-12,,
,10.094003,-2.60E-12,,
,10.096003,-2.49E-12,,
,10.098003,-2.82E-12,,
,10.100003,-3.25E-12,,
,10.102003,-4.21E-12,,
,10.104003,-5.39E-12,,
,10.106003,-6.36E-12,,
,10.108003,-7.11E-12,,
,10.110003,-7.43E-12,,
,10.112003,-7.54E-12,,
,10.114003,-7.54E-12,,
,10.116003,-7.75E-12,,
,10.118003,-8.40E-12,,
,10.120003,-9.58E-12,,
,10.122003,-1.11E-11,,
,10.124003,-1.22E-11,,
,10.126003,-1.26E-11,,
,10.128003,-1.28E-11,,
,10.130003,-1.28E-11,,
,10.132003,-1.30E-11,,
,10.134003,-1.34E-11,,
,10.136003,-1.45E-11,,
,10.138003,-1.57E-11,,
,10.140003,-1.68E-11,,
,10.142003,-1.74E-11,,
,10.144003,-1.76E-11,,
,10.146003,-1.74E-11,,
,10.148003,-1.73E-11,,
,10.150003,-1.78E-11,,
,10.152003,-1.87E-11,,
,10.154003,-1.97E-11,,
,10.156003,-2.05E-11,,
,10.158003,-2.10E-11,,
,10.160003,-2.10E-11,,
,10.162003,-2.05E-11,,
,10.164003,-2.02E-11,,
,10.166003,-2.00E-11,,
,10.168003,-2.02E-11,,
,10.170003,-2.06E-11,,
,10.172003,-2.15E-11,,
,10.174003,-2.19E-11,,
,10.176003,-2.20E-11,,
,10.178003,-2.15E-11,,
,10.180003,-2.11E-11,,
,10.182003,-2.09E-11,,
,10.184003,-2.13E-11,,
,10.186003,-2.17E-11,,
,10.188003,-2.25E-11,,
,10.190003,-2.28E-11,,
,10.192003,-2.31E-11,,
,10.194003,-2.26E-11,,
,10.196003,-2.17E-11,,
,10.198003,-2.11E-11,,
,10.200003,-2.09E-11,,
,10.202003,-2.12E-11,,
,10.204003,-2.14E-11,,
,10.206003,-2.17E-11,,
,10.208003,-2.17E-11,,
,10.210003,-2.14E-11,,
,10.212003,-2.06E-11,,
,10.214003,-2.00E-11,,
,10.216003,-1.97E-11,,
,10.218003,-2.00E-11,,
,10.220003,-2.06E-11,,
,10.222003,-2.13E-11,,
,10.224003,-2.13E-11,,
,10.226003,-2.11E-11,,
,10.228003,-2.05E-11,,
,10.230003,-2.02E-11,,
,10.232003,-1.96E-11,,
,10.234003,-1.96E-11,,
,10.236003,-1.98E-11,,
,10.238003,-2.03E-11,,
,10.240003,-2.03E-11,,
,10.242003,-2.01E-11,,
,10.244003,-1.95E-11,,
,10.246003,-1.88E-11,,
,10.248003,-1.83E-11,,
,10.250003,-1.84E-11,,
,10.252003,-1.89E-11,,
,10.254003,-1.96E-11,,
,10.256003,-2.01E-11,,
,10.258003,-2.04E-11,,
,10.260003,-2.03E-11,,
,10.262003,-1.97E-11,,
,10.264003,-1.90E-11,,
,10.266003,-1.90E-11,,
,10.268003,-1.93E-11,,
,10.270003,-1.99E-11,,
,10.272003,-2.04E-11,,
,10.274003,-2.09E-11,,
,10.276003,-2.09E-11,,
,10.278003,-2.02E-11,,
,10.280003,-1.97E-11,,
,10.282003,-1.92E-11,,
,10.284003,-1.96E-11,,
,10.286003,-2.03E-11,,
,10.288003,-2.12E-11,,
,10.290003,-2.18E-11,,
,10.292003,-2.19E-11,,
,10.294003,-2.17E-11,,
,10.296003,-2.11E-11,,
,10.298003,-2.07E-11,,
,10.300003,-2.06E-11,,
,10.302003,-2.11E-11,,
,10.304003,-2.17E-11,,
,10.306003,-2.25E-11,,
,10.308003,-2.29E-11,,
,10.310003,-2.28E-11,,
,10.312003,-2.25E-11,,
,10.314003,-2.20E-11,,
,10.316003,-2.18E-11,,
,10.318003,-2.25E-11,,
,10.320003,-2.33E-11,,
,10.322003,-2.44E-11,,
,10.324003,-2.47E-11,,
,10.326003,-2.48E-11,,
,10.328003,-2.43E-11,,
,10.330003,-2.36E-11,,
,10.332003,-2.32E-11,,
,10.334003,-2.34E-11,,
,10.336003,-2.43E-11,,
,10.338003,-2.50E-11,,
,10.340003,-2.57E-11,,
,10.342003,-2.56E-11,,
,10.344003,-2.51E-11,,
,10.346003,-2.44E-11,,
,10.348003,-2.38E-11,,
,10.350003,-2.39E-11,,
,10.352003,-2.44E-11,,
,10.354003,-2.53E-11,,
,10.356003,-2.58E-11,,
,10.358003,-2.57E-11,,
,10.360003,-2.53E-11,,
,10.362003,-2.44E-11,,
,10.364003,-2.39E-11,,
,10.366003,-2.33E-11,,
,10.368003,-2.35E-11,,
,10.370003,-2.39E-11,,
,10.372003,-2.43E-11,,
,10.374003,-2.44E-11,,
,10.376003,-2.41E-11,,
,10.378003,-2.35E-11,,
,10.380003,-2.26E-11,,
,10.382003,-2.20E-11,,
,10.384003,-2.16E-11,,
,10.386003,-2.18E-11,,
,10.388003,-2.21E-11,,
,10.390003,-2.26E-11,,
,10.392003,-2.25E-11,,
,10.394003,-2.19E-11,,
,10.396003,-2.12E-11,,
,10.398003,-2.04E-11,,
,10.400003,-2.01E-11,,
,10.402003,-2.02E-11,,
,10.404003,-2.05E-11,,
,10.406003,-2.07E-11,,
,10.408003,-2.05E-11,,
,10.410003,-2.01E-11,,
,10.412003,-1.92E-11,,
,10.414003,-1.86E-11,,
,10.416003,-1.81E-11,,
,10.418003,-1.80E-11,,
,10.420003,-1.81E-11,,
,10.422003,-1.82E-11,,
,10.424003,-1.82E-11,,
,10.426003,-1.77E-11,,
,10.428003,-1.70E-11,,
,10.430003,-1.61E-11,,
,10.432003,-1.53E-11,,
,10.434003,-1.52E-11,,
,10.436003,-1.55E-11,,
,10.438003,-1.61E-11,,
,10.440003,-1.62E-11,,
,10.442003,-1.58E-11,,
,10.444003,-1.49E-11,,
,10.446003,-1.39E-11,,
,10.448003,-1.29E-11,,
,10.450003,-1.22E-11,,
,10.452003,-1.19E-11,,
,10.454003,-1.20E-11,,
,10.456003,-1.18E-11,,
,10.458003,-1.15E-11,,
,10.460003,-1.05E-11,,
,10.462003,-1.00E-11,,
,10.464003,-9.04E-12,,
,10.466003,-8.61E-12,,
,10.468003,-8.29E-12,,
,10.470003,-8.72E-12,,
,10.472003,-9.04E-12,,
,10.474003,-9.15E-12,,
,10.476003,-8.61E-12,,
,10.478003,-7.65E-12,,
,10.480003,-6.79E-12,,
,10.482003,-5.93E-12,,
,10.484003,-5.93E-12,,
,10.486003,-6.14E-12,,
,10.488003,-7.00E-12,,
,10.490003,-7.43E-12,,
,10.492003,-7.54E-12,,
,10.494003,-7.33E-12,,
,10.496003,-6.68E-12,,
,10.498003,-5.93E-12,,
,10.500003,-5.50E-12,,
,10.502003,-5.82E-12,,
,10.504003,-6.47E-12,,
,10.506003,-6.90E-12,,
,10.508003,-6.79E-12,,
,10.510003,-6.25E-12,,
,10.512003,-5.39E-12,,
,10.514003,-4.86E-12,,
,10.516003,-4.64E-12,,
,10.518003,-5.07E-12,,
,10.520003,-5.82E-12,,
,10.522003,-6.68E-12,,
,10.524003,-7.11E-12,,
,10.526003,-7.22E-12,,
,10.528003,-7.11E-12,,
,10.530003,-6.79E-12,,
,10.532003,-6.47E-12,,
,10.534003,-6.79E-12,,
,10.536003,-7.65E-12,,
,10.538003,-8.61E-12,,
,10.540003,-9.15E-12,,
,10.542003,-9.37E-12,,
,10.544003,-9.26E-12,,
,10.546003,-9.15E-12,,
,10.548003,-9.15E-12,,
,10.550003,-9.79E-12,,
,10.552003,-1.07E-11,,
,10.554003,-1.17E-11,,
,10.556003,-1.30E-11,,
,10.558003,-1.37E-11,,
,10.560003,-1.42E-11,,
,10.562003,-1.39E-11,,
,10.564003,-1.41E-11,,
,10.566003,-1.42E-11,,
,10.568003,-1.49E-11,,
,10.570003,-1.59E-11,,
,10.572003,-1.71E-11,,
,10.574003,-1.78E-11,,
,10.576003,-1.81E-11,,
,10.578003,-1.80E-11,,
,10.580003,-1.80E-11,,
,10.582003,-1.84E-11,,
,10.584003,-1.89E-11,,
,10.586003,-2.00E-11,,
,10.588003,-2.13E-11,,
,10.590003,-2.22E-11,,
,10.592003,-2.27E-11,,
,10.594003,-2.24E-11,,
,10.596003,-2.24E-11,,
,10.598003,-2.20E-11,,
,10.600003,-2.21E-11,,
,10.602003,-2.22E-11,,
,10.604003,-2.28E-11,,
,10.606003,-2.36E-11,,
,10.608003,-2.40E-11,,
,10.610003,-2.39E-11,,
,10.612003,-2.30E-11,,
,10.614003,-2.25E-11,,
,10.616003,-2.24E-11,,
,10.618003,-2.29E-11,,
,10.620003,-2.41E-11,,
,10.622003,-2.51E-11,,
,10.624003,-2.58E-11,,
,10.626003,-2.60E-11,,
,10.628003,-2.58E-11,,
,10.630003,-2.57E-11,,
,10.632003,-2.55E-11,,
,10.634003,-2.59E-11,,
,10.636003,-2.66E-11,,
,10.638003,-2.76E-11,,
,10.640003,-2.83E-11,,
,10.642003,-2.84E-11,,
,10.644003,-2.85E-11,,
,10.646003,-2.84E-11,,
,10.648003,-2.86E-11,,
,10.650003,-2.88E-11,,
,10.652003,-3.00E-11,,
,10.654003,-3.13E-11,,
,10.656003,-3.28E-11,,
,10.658003,-3.38E-11,,
,10.660003,-3.44E-11,,
,10.662003,-3.43E-11,,
,10.664003,-3.38E-11,,
,10.666003,-3.41E-11,,
,10.668003,-3.50E-11,,
,10.670003,-3.61E-11,,
,10.672003,-3.72E-11,,
,10.674003,-3.77E-11,,
,10.676003,-3.79E-11,,
,10.678003,-3.75E-11,,
,10.680003,-3.70E-11,,
,10.682003,-3.68E-11,,
,10.684003,-3.73E-11,,
,10.686003,-3.85E-11,,
,10.688003,-3.95E-11,,
,10.690003,-4.01E-11,,
,10.692003,-3.99E-11,,
,10.694003,-3.94E-11,,
,10.696003,-3.90E-11,,
,10.698003,-3.88E-11,,
,10.700003,-3.85E-11,,
,10.702003,-3.85E-11,,
,10.704003,-3.82E-11,,
,10.706003,-3.81E-11,,
,10.708003,-3.73E-11,,
,10.710003,-3.63E-11,,
,10.712003,-3.49E-11,,
,10.714003,-3.36E-11,,
,10.716003,-3.26E-11,,
,10.718003,-3.20E-11,,
,10.720003,-3.19E-11,,
,10.722003,-3.17E-11,,
,10.724003,-3.09E-11,,
,10.726003,-2.95E-11,,
,10.728003,-2.77E-11,,
,10.730003,-2.59E-11,,
,10.732003,-2.42E-11,,
,10.734003,-2.25E-11,,
,10.736003,-2.12E-11,,
,10.738003,-1.98E-11,,
,10.740003,-1.85E-11,,
,10.742003,-1.65E-11,,
,10.744003,-1.42E-11,,
,10.746003,-1.16E-11,,
,10.748003,-9.15E-12,,
,10.750003,-7.11E-12,,
,10.752003,-5.61E-12,,
,10.754003,-4.21E-12,,
,10.756003,-2.60E-12,,
,10.758003,-3.47E-13,,
,10.760003,2.12E-12,,
,10.762003,5.24E-12,,
,10.764003,8.46E-12,,
,10.766003,1.16E-11,,
,10.768003,1.39E-11,,
,10.770003,1.62E-11,,
,10.772003,1.83E-11,,
,10.774003,2.09E-11,,
,10.776003,2.37E-11,,
,10.778003,2.70E-11,,
,10.780003,3.02E-11,,
,10.782003,3.33E-11,,
,10.784003,3.57E-11,,
,10.786003,3.79E-11,,
,10.788003,3.96E-11,,
,10.790003,4.16E-11,,
,10.792003,4.41E-11,,
,10.794003,4.72E-11,,
,10.796003,5.04E-11,,
,10.798003,5.35E-11,,
,10.800003,5.62E-11,,
,10.802003,5.84E-11,,
,10.804003,6.01E-11,,
,10.806003,6.21E-11,,
,10.808003,6.44E-11,,
,10.810003,6.71E-11,,
,10.812003,6.96E-11,,
,10.814003,7.22E-11,,
,10.816003,7.46E-11,,
,10.818003,7.65E-11,,
,10.820003,7.77E-11,,
,10.822003,7.88E-11,,
,10.824003,7.98E-11,,
,10.826003,8.19E-11,,
,10.828003,8.38E-11,,
,10.830003,8.63E-11,,
,10.832003,8.81E-11,,
,10.834003,8.96E-11,,
,10.836003,9.05E-11,,
,10.838003,9.12E-11,,
,10.840003,9.23E-11,,
,10.842003,9.37E-11,,
,10.844003,9.56E-11,,
,10.846003,9.76E-11,,
,10.848003,9.93E-11,,
,10.850003,1.00E-10,,
,10.852003,1.01E-10,,
,10.854003,1.02E-10,,
,10.856003,1.02E-10,,
,10.858003,1.03E-10,,
,10.860003,1.04E-10,,
,10.862003,1.05E-10,,
,10.864003,1.06E-10,,
,10.866003,1.07E-10,,
,10.868003,1.08E-10,,
,10.870003,1.08E-10,,
,10.872003,1.08E-10,,
,10.874003,1.08E-10,,
,10.876003,1.09E-10,,
,10.878003,1.09E-10,,
,10.880003,1.11E-10,,
,10.882003,1.11E-10,,
,10.884003,1.12E-10,,
,10.886003,1.11E-10,,
,10.888003,1.11E-10,,
,10.890003,1.11E-10,,
,10.892003,1.11E-10,,
,10.894003,1.11E-10,,
,10.896003,1.12E-10,,
,10.898003,1.12E-10,,
,10.900003,1.12E-10,,
,10.902003,1.12E-10,,
,10.904003,1.11E-10,,
,10.906003,1.11E-10,,
,10.908003,1.11E-10,,
,10.910003,1.11E-10,,
,10.912003,1.12E-10,,
,10.914003,1.12E-10,,
,10.916003,1.12E-10,,
,10.918003,1.11E-10,,
,10.920003,1.11E-10,,
,10.922003,1.10E-10,,
,10.924003,1.09E-10,,
,10.926003,1.09E-10,,
,10.928003,1.09E-10,,
,10.930003,1.09E-10,,
,10.932003,1.09E-10,,
,10.934003,1.08E-10,,
,10.936003,1.07E-10,,
,10.938003,1.06E-10,,
,10.940003,1.06E-10,,
,10.942003,1.05E-10,,
,10.944003,1.05E-10,,
,10.946003,1.05E-10,,
,10.948003,1.05E-10,,
,10.950003,1.05E-10,,
,10.952003,1.04E-10,,
,10.954003,1.03E-10,,
,10.956003,1.02E-10,,
,10.958003,1.01E-10,,
,10.960003,1.00E-10,,
,10.962003,1.00E-10,,
,10.964003,1.00E-10,,
,10.966003,9.95E-11,,
,10.968003,9.85E-11,,
,10.970003,9.71E-11,,
,10.972003,9.60E-11,,
,10.974003,9.48E-11,,
,10.976003,9.42E-11,,
,10.978003,9.38E-11,,
,10.980003,9.39E-11,,
,10.982003,9.35E-11,,
,10.984003,9.26E-11,,
,10.986003,9.09E-11,,
,10.988003,8.92E-11,,
,10.990003,8.77E-11,,
,10.992003,8.67E-11,,
,10.994003,8.61E-11,,
,10.996003,8.55E-11,,
,10.998003,8.48E-11,,
,11.000003,8.37E-11,,
,11.002003,8.21E-11,,
,11.004003,8.01E-11,,
,11.006003,7.83E-11,,
,11.008003,7.72E-11,,
,11.010003,7.64E-11,,
,11.012003,7.59E-11,,
,11.014003,7.51E-11,,
,11.016003,7.44E-11,,
,11.018003,7.29E-11,,
,11.020003,7.09E-11,,
,11.022003,6.89E-11,,
,11.024003,6.71E-11,,
,11.026003,6.59E-11,,
,11.028003,6.48E-11,,
,11.030003,6.41E-11,,
,11.032003,6.31E-11,,
,11.034003,6.17E-11,,
,11.036003,6.02E-11,,
,11.038003,5.86E-11,,
,11.040003,5.74E-11,,
,11.042003,5.64E-11,,
,11.044003,5.58E-11,,
,11.046003,5.56E-11,,
,11.048003,5.48E-11,,
,11.050003,5.40E-11,,
,11.052003,5.25E-11,,
,11.054003,5.13E-11,,
,11.056003,5.00E-11,,
,11.058003,4.93E-11,,
,11.060003,4.87E-11,,
,11.062003,4.89E-11,,
,11.064003,4.88E-11,,
,11.066003,4.85E-11,,
,11.068003,4.76E-11,,
,11.070003,4.68E-11,,
,11.072003,4.59E-11,,
,11.074003,4.50E-11,,
,11.076003,4.46E-11,,
,11.078003,4.46E-11,,
,11.080003,4.51E-11,,
,11.082003,4.47E-11,,
,11.084003,4.43E-11,,
,11.086003,4.30E-11,,
,11.088003,4.17E-11,,
,11.090003,4.02E-11,,
,11.092003,3.95E-11,,
,11.094003,3.89E-11,,
,11.096003,3.89E-11,,
,11.098003,3.87E-11,,
,11.100003,3.84E-11,,
,11.102003,3.72E-11,,
,11.104003,3.58E-11,,
,11.106003,3.47E-11,,
,11.108003,3.39E-11,,
,11.110003,3.36E-11,,
,11.112003,3.34E-11,,
,11.114003,3.29E-11,,
,11.116003,3.21E-11,,
,11.118003,3.07E-11,,
,11.120003,2.93E-11,,
,11.122003,2.78E-11,,
,11.124003,2.64E-11,,
,11.126003,2.53E-11,,
,11.128003,2.48E-11,,
,11.130003,2.45E-11,,
,11.132003,2.39E-11,,
,11.134003,2.28E-11,,
,11.136003,2.16E-11,,
,11.138003,2.02E-11,,
,11.140003,1.93E-11,,
,11.142003,1.88E-11,,
,11.144003,1.87E-11,,
,11.146003,1.87E-11,,
,11.148003,1.87E-11,,
,11.150003,1.82E-11,,
,11.152003,1.72E-11,,
,11.154003,1.60E-11,,
,11.156003,1.50E-11,,
