5/3/2019, 5:12:59 PM ,,,
 Current Sensitivity ,1.00E-09,,,
 This file comes from It only measurement ,0.00E+00,,,
 Sampling rate ,500,,,
 Number of samples per channel ,-1,,,
 No filter from Labview , , , ,
 , ,,,
 ***End_of_Header*** ,,,,
 , Time , Current , Filtered Current , 
,-1.48E-06,-9.81E-12,,
,0.001999,-1.96E-11,,
,0.003999,-2.94E-11,,
,0.005999,-2.94E-11,,
,0.007999,-2.94E-11,,
,0.009999,-2.97E-11,,
,0.011999,-3.01E-11,,
,0.013999,-3.07E-11,,
,0.015999,-3.12E-11,,
,0.017999,-3.15E-11,,
,0.019999,-3.14E-11,,
,0.021999,-3.11E-11,,
,0.023999,-3.07E-11,,
,0.025999,-3.11E-11,,
,0.027999,-3.18E-11,,
,0.029999,-3.29E-11,,
,0.031999,-3.35E-11,,
,0.033999,-3.39E-11,,
,0.035999,-3.37E-11,,
,0.037999,-3.34E-11,,
,0.039999,-3.29E-11,,
,0.041999,-3.26E-11,,
,0.043999,-3.29E-11,,
,0.045999,-3.35E-11,,
,0.047999,-3.42E-11,,
,0.049999,-3.41E-11,,
,0.051999,-3.36E-11,,
,0.053999,-3.30E-11,,
,0.055999,-3.21E-11,,
,0.057999,-3.16E-11,,
,0.059999,-3.13E-11,,
,0.061999,-3.17E-11,,
,0.063999,-3.20E-11,,
,0.065999,-3.22E-11,,
,0.067999,-3.21E-11,,
,0.069999,-3.15E-11,,
,0.071999,-3.07E-11,,
,0.073999,-3.00E-11,,
,0.075999,-2.99E-11,,
,0.077999,-3.00E-11,,
,0.079999,-3.02E-11,,
,0.081999,-3.02E-11,,
,0.083999,-3.01E-11,,
,0.085999,-2.97E-11,,
,0.087999,-2.90E-11,,
,0.089999,-2.85E-11,,
,0.091999,-2.80E-11,,
,0.093999,-2.84E-11,,
,0.095999,-2.88E-11,,
,0.097999,-2.95E-11,,
,0.099999,-2.97E-11,,
,0.101999,-2.94E-11,,
,0.103999,-2.88E-11,,
,0.105999,-2.82E-11,,
,0.107999,-2.76E-11,,
,0.109999,-2.76E-11,,
,0.111999,-2.79E-11,,
,0.113999,-2.86E-11,,
,0.115999,-2.88E-11,,
,0.117999,-2.88E-11,,
,0.119999,-2.82E-11,,
,0.121999,-2.74E-11,,
,0.123999,-2.69E-11,,
,0.125999,-2.71E-11,,
,0.127999,-2.79E-11,,
,0.129999,-2.89E-11,,
,0.131999,-2.97E-11,,
,0.133999,-3.00E-11,,
,0.135999,-3.01E-11,,
,0.137999,-2.97E-11,,
,0.139999,-2.90E-11,,
,0.141999,-2.85E-11,,
,0.143999,-2.87E-11,,
,0.145999,-2.94E-11,,
,0.147999,-3.02E-11,,
,0.149999,-3.06E-11,,
,0.151999,-3.05E-11,,
,0.153999,-3.03E-11,,
,0.155999,-2.98E-11,,
,0.157999,-2.98E-11,,
,0.159999,-3.00E-11,,
,0.161999,-3.07E-11,,
,0.163999,-3.15E-11,,
,0.165999,-3.20E-11,,
,0.167999,-3.21E-11,,
,0.169999,-3.19E-11,,
,0.171999,-3.14E-11,,
,0.173999,-3.11E-11,,
,0.175999,-3.08E-11,,
,0.177999,-3.15E-11,,
,0.179999,-3.22E-11,,
,0.181999,-3.32E-11,,
,0.183999,-3.33E-11,,
,0.185999,-3.32E-11,,
,0.187999,-3.27E-11,,
,0.189999,-3.21E-11,,
,0.191999,-3.19E-11,,
,0.193999,-3.19E-11,,
,0.195999,-3.26E-11,,
,0.197999,-3.32E-11,,
,0.199999,-3.36E-11,,
,0.201999,-3.35E-11,,
,0.203999,-3.33E-11,,
,0.205999,-3.28E-11,,
,0.207999,-3.26E-11,,
,0.209999,-3.26E-11,,
,0.211999,-3.32E-11,,
,0.213999,-3.36E-11,,
,0.215999,-3.39E-11,,
,0.217999,-3.36E-11,,
,0.219999,-3.33E-11,,
,0.221999,-3.23E-11,,
,0.223999,-3.20E-11,,
,0.225999,-3.19E-11,,
,0.227999,-3.26E-11,,
,0.229999,-3.30E-11,,
,0.231999,-3.31E-11,,
,0.233999,-3.30E-11,,
,0.235999,-3.27E-11,,
,0.237999,-3.22E-11,,
,0.239999,-3.16E-11,,
,0.241999,-3.13E-11,,
,0.243999,-3.15E-11,,
,0.245999,-3.21E-11,,
,0.247999,-3.26E-11,,
,0.249999,-3.27E-11,,
,0.251999,-3.22E-11,,
,0.253999,-3.17E-11,,
,0.255999,-3.09E-11,,
,0.257999,-3.04E-11,,
,0.259999,-3.02E-11,,
,0.261999,-3.04E-11,,
,0.263999,-3.07E-11,,
,0.265999,-3.13E-11,,
,0.267999,-3.15E-11,,
,0.269999,-3.12E-11,,
,0.271999,-3.03E-11,,
,0.273999,-2.97E-11,,
,0.275999,-2.93E-11,,
,0.277999,-2.95E-11,,
,0.279999,-2.98E-11,,
,0.281999,-3.01E-11,,
,0.283999,-2.97E-11,,
,0.285999,-2.90E-11,,
,0.287999,-2.77E-11,,
,0.289999,-2.69E-11,,
,0.291999,-2.63E-11,,
,0.293999,-2.66E-11,,
,0.295999,-2.72E-11,,
,0.297999,-2.75E-11,,
,0.299999,-2.75E-11,,
,0.301999,-2.71E-11,,
,0.303999,-2.64E-11,,
,0.305999,-2.57E-11,,
,0.307999,-2.53E-11,,
,0.309999,-2.53E-11,,
,0.311999,-2.57E-11,,
,0.313999,-2.59E-11,,
,0.315999,-2.59E-11,,
,0.317999,-2.54E-11,,
,0.319999,-2.47E-11,,
,0.321999,-2.39E-11,,
,0.323999,-2.33E-11,,
,0.325999,-2.31E-11,,
,0.327999,-2.36E-11,,
,0.329999,-2.45E-11,,
,0.331999,-2.51E-11,,
,0.333999,-2.51E-11,,
,0.335999,-2.46E-11,,
,0.337999,-2.41E-11,,
,0.339999,-2.35E-11,,
,0.341999,-2.33E-11,,
,0.343999,-2.33E-11,,
,0.345999,-2.39E-11,,
,0.347999,-2.44E-11,,
,0.349999,-2.47E-11,,
,0.351999,-2.46E-11,,
,0.353999,-2.40E-11,,
,0.355999,-2.31E-11,,
,0.357999,-2.26E-11,,
,0.359999,-2.27E-11,,
,0.361999,-2.34E-11,,
,0.363999,-2.41E-11,,
,0.365999,-2.46E-11,,
,0.367999,-2.45E-11,,
,0.369999,-2.42E-11,,
,0.371999,-2.34E-11,,
,0.373999,-2.27E-11,,
,0.375999,-2.24E-11,,
,0.377999,-2.26E-11,,
,0.379999,-2.31E-11,,
,0.381999,-2.34E-11,,
,0.383999,-2.35E-11,,
,0.385999,-2.34E-11,,
,0.387999,-2.26E-11,,
,0.389999,-2.17E-11,,
,0.391999,-2.13E-11,,
,0.393999,-2.16E-11,,
,0.395999,-2.21E-11,,
,0.397999,-2.27E-11,,
,0.399999,-2.28E-11,,
,0.401999,-2.26E-11,,
,0.403999,-2.20E-11,,
,0.405999,-2.17E-11,,
,0.407999,-2.14E-11,,
,0.409999,-2.13E-11,,
,0.411999,-2.15E-11,,
,0.413999,-2.19E-11,,
,0.415999,-2.22E-11,,
,0.417999,-2.21E-11,,
,0.419999,-2.16E-11,,
,0.421999,-2.10E-11,,
,0.423999,-2.02E-11,,
,0.425999,-2.01E-11,,
,0.427999,-2.03E-11,,
,0.429999,-2.10E-11,,
,0.431999,-2.15E-11,,
,0.433999,-2.16E-11,,
,0.435999,-2.15E-11,,
,0.437999,-2.07E-11,,
,0.439999,-1.97E-11,,
,0.441999,-1.86E-11,,
,0.443999,-1.76E-11,,
,0.445999,-1.69E-11,,
,0.447999,-1.60E-11,,
,0.449999,-1.52E-11,,
,0.451999,-1.45E-11,,
,0.453999,-1.34E-11,,
,0.455999,-1.24E-11,,
,0.457999,-1.13E-11,,
,0.459999,-1.02E-11,,
,0.461999,-9.37E-12,,
,0.463999,-8.29E-12,,
,0.465999,-7.54E-12,,
,0.467999,-6.79E-12,,
,0.469999,-6.14E-12,,
,0.471999,-5.50E-12,,
,0.473999,-4.75E-12,,
,0.475999,-4.10E-12,,
,0.477999,-3.57E-12,,
,0.479999,-3.03E-12,,
,0.481999,-2.28E-12,,
,0.483999,-1.64E-12,,
,0.485999,-1.10E-12,,
,0.487999,-4.55E-13,,
,0.489999,-2.53E-14,,
,0.491999,4.04E-13,,
,0.493999,5.11E-13,,
,0.495999,7.26E-13,,
,0.497999,6.19E-13,,
,0.499999,5.11E-13,,
,0.501999,8.20E-14,,
,0.503999,-2.53E-14,,
,0.505999,-4.55E-13,,
,0.507999,-3.47E-13,,
,0.509999,-6.69E-13,,
,0.511999,-6.69E-13,,
,0.513999,-1.10E-12,,
,0.515999,-1.42E-12,,
,0.517999,-2.07E-12,,
,0.519999,-2.49E-12,,
,0.521999,-2.82E-12,,
,0.523999,-2.92E-12,,
,0.525999,-3.46E-12,,
,0.527999,-4.10E-12,,
,0.529999,-4.86E-12,,
,0.531999,-5.29E-12,,
,0.533999,-6.14E-12,,
,0.535999,-7.11E-12,,
,0.537999,-8.29E-12,,
,0.539999,-9.04E-12,,
,0.541999,-9.79E-12,,
,0.543999,-1.03E-11,,
,0.545999,-1.09E-11,,
,0.547999,-1.15E-11,,
,0.549999,-1.25E-11,,
,0.551999,-1.34E-11,,
,0.553999,-1.42E-11,,
,0.555999,-1.49E-11,,
,0.557999,-1.55E-11,,
,0.559999,-1.63E-11,,
,0.561999,-1.70E-11,,
,0.563999,-1.82E-11,,
,0.565999,-1.93E-11,,
,0.567999,-2.05E-11,,
,0.569999,-2.16E-11,,
,0.571999,-2.25E-11,,
,0.573999,-2.36E-11,,
,0.575999,-2.47E-11,,
,0.577999,-2.56E-11,,
,0.579999,-2.63E-11,,
,0.581999,-2.71E-11,,
,0.583999,-2.84E-11,,
,0.585999,-2.93E-11,,
,0.587999,-3.03E-11,,
,0.589999,-3.12E-11,,
,0.591999,-3.22E-11,,
,0.593999,-3.32E-11,,
,0.595999,-3.42E-11,,
,0.597999,-3.52E-11,,
,0.599999,-3.63E-11,,
,0.601999,-3.76E-11,,
,0.603999,-3.87E-11,,
,0.605999,-4.01E-11,,
,0.607999,-4.10E-11,,
,0.609999,-4.22E-11,,
,0.611999,-4.32E-11,,
,0.613999,-4.40E-11,,
,0.615999,-4.49E-11,,
,0.617999,-4.60E-11,,
,0.619999,-4.73E-11,,
,0.621999,-4.84E-11,,
,0.623999,-4.96E-11,,
,0.625999,-5.08E-11,,
,0.627999,-5.19E-11,,
,0.629999,-5.27E-11,,
,0.631999,-5.38E-11,,
,0.633999,-5.52E-11,,
,0.635999,-5.66E-11,,
,0.637999,-5.82E-11,,
,0.639999,-5.96E-11,,
,0.641999,-6.09E-11,,
,0.643999,-6.19E-11,,
,0.645999,-6.29E-11,,
,0.647999,-6.41E-11,,
,0.649999,-6.55E-11,,
,0.651999,-6.67E-11,,
,0.653999,-6.81E-11,,
,0.655999,-6.91E-11,,
,0.657999,-7.00E-11,,
,0.659999,-7.09E-11,,
,0.661999,-7.17E-11,,
,0.663999,-7.27E-11,,
,0.665999,-7.37E-11,,
,0.667999,-7.49E-11,,
,0.669999,-7.61E-11,,
,0.671999,-7.74E-11,,
,0.673999,-7.86E-11,,
,0.675999,-7.96E-11,,
,0.677999,-8.03E-11,,
,0.679999,-8.10E-11,,
,0.681999,-8.17E-11,,
,0.683999,-8.26E-11,,
,0.685999,-8.37E-11,,
,0.687999,-8.46E-11,,
,0.689999,-8.55E-11,,
,0.691999,-8.63E-11,,
,0.693999,-8.71E-11,,
,0.695999,-8.79E-11,,
,0.697999,-8.86E-11,,
,0.699999,-8.93E-11,,
,0.701999,-9.01E-11,,
,0.703999,-9.10E-11,,
,0.705999,-9.17E-11,,
,0.707999,-9.21E-11,,
,0.709999,-9.25E-11,,
,0.711999,-9.28E-11,,
,0.713999,-9.34E-11,,
,0.715999,-9.40E-11,,
,0.717999,-9.48E-11,,
,0.719999,-9.55E-11,,
,0.721999,-9.64E-11,,
,0.723999,-9.69E-11,,
,0.725999,-9.73E-11,,
,0.727999,-9.75E-11,,
,0.729999,-9.79E-11,,
,0.731999,-9.86E-11,,
,0.733999,-9.93E-11,,
,0.735999,-1.00E-10,,
,0.737999,-1.01E-10,,
,0.739999,-1.02E-10,,
,0.741999,-1.02E-10,,
,0.743999,-1.03E-10,,
,0.745999,-1.03E-10,,
,0.747999,-1.03E-10,,
,0.749999,-1.03E-10,,
,0.751999,-1.04E-10,,
,0.753999,-1.05E-10,,
,0.755999,-1.05E-10,,
,0.757999,-1.06E-10,,
,0.759999,-1.07E-10,,
,0.761999,-1.07E-10,,
,0.763999,-1.08E-10,,
,0.765999,-1.09E-10,,
,0.767999,-1.09E-10,,
,0.769999,-1.10E-10,,
,0.771999,-1.10E-10,,
,0.773999,-1.11E-10,,
,0.775999,-1.11E-10,,
,0.777999,-1.12E-10,,
,0.779999,-1.12E-10,,
,0.781999,-1.12E-10,,
,0.783999,-1.12E-10,,
,0.785999,-1.13E-10,,
,0.787999,-1.13E-10,,
,0.789999,-1.14E-10,,
,0.791999,-1.14E-10,,
,0.793999,-1.14E-10,,
,0.795999,-1.14E-10,,
,0.797999,-1.15E-10,,
,0.799999,-1.15E-10,,
,0.801999,-1.15E-10,,
,0.803999,-1.16E-10,,
,0.805999,-1.16E-10,,
,0.807999,-1.16E-10,,
,0.809999,-1.16E-10,,
,0.811999,-1.16E-10,,
,0.813999,-1.16E-10,,
,0.815999,-1.15E-10,,
,0.817999,-1.16E-10,,
,0.819999,-1.16E-10,,
,0.821999,-1.16E-10,,
,0.823999,-1.16E-10,,
,0.825999,-1.16E-10,,
,0.827999,-1.16E-10,,
,0.829999,-1.16E-10,,
,0.831999,-1.16E-10,,
,0.833999,-1.16E-10,,
,0.835999,-1.16E-10,,
,0.837999,-1.16E-10,,
,0.839999,-1.16E-10,,
,0.841999,-1.16E-10,,
,0.843999,-1.16E-10,,
,0.845999,-1.15E-10,,
,0.847999,-1.15E-10,,
,0.849999,-1.15E-10,,
,0.851999,-1.15E-10,,
,0.853999,-1.16E-10,,
,0.855999,-1.15E-10,,
,0.857999,-1.15E-10,,
,0.859999,-1.15E-10,,
,0.861999,-1.14E-10,,
,0.863999,-1.14E-10,,
,0.865999,-1.14E-10,,
,0.867999,-1.13E-10,,
,0.869999,-1.13E-10,,
,0.871999,-1.13E-10,,
,0.873999,-1.13E-10,,
,0.875999,-1.12E-10,,
,0.877999,-1.12E-10,,
,0.879999,-1.11E-10,,
,0.881999,-1.11E-10,,
,0.883999,-1.10E-10,,
,0.885999,-1.10E-10,,
,0.887999,-1.10E-10,,
,0.889999,-1.10E-10,,
,0.891999,-1.09E-10,,
,0.893999,-1.08E-10,,
,0.895999,-1.08E-10,,
,0.897999,-1.07E-10,,
,0.899999,-1.06E-10,,
,0.901999,-1.06E-10,,
,0.903999,-1.05E-10,,
,0.905999,-1.05E-10,,
,0.907999,-1.04E-10,,
,0.909999,-1.03E-10,,
,0.911999,-1.03E-10,,
,0.913999,-1.02E-10,,
,0.915999,-1.02E-10,,
,0.917999,-1.02E-10,,
,0.919999,-1.01E-10,,
,0.921999,-1.01E-10,,
,0.923999,-9.98E-11,,
,0.925999,-9.89E-11,,
,0.927999,-9.81E-11,,
,0.929999,-9.74E-11,,
,0.931999,-9.70E-11,,
,0.933999,-9.66E-11,,
,0.935999,-9.70E-11,,
,0.937999,-9.71E-11,,
,0.939999,-9.72E-11,,
,0.941999,-9.69E-11,,
,0.943999,-9.63E-11,,
,0.945999,-9.60E-11,,
,0.947999,-9.56E-11,,
,0.949999,-9.56E-11,,
,0.951999,-9.58E-11,,
,0.953999,-9.60E-11,,
,0.955999,-9.60E-11,,
,0.957999,-9.60E-11,,
,0.959999,-9.63E-11,,
,0.961999,-9.70E-11,,
,0.963999,-9.75E-11,,
,0.965999,-9.80E-11,,
,0.967999,-9.87E-11,,
,0.969999,-9.92E-11,,
,0.971999,-9.99E-11,,
,0.973999,-1.01E-10,,
,0.975999,-1.01E-10,,
,0.977999,-1.02E-10,,
,0.979999,-1.03E-10,,
,0.981999,-1.03E-10,,
,0.983999,-1.04E-10,,
,0.985999,-1.05E-10,,
,0.987999,-1.06E-10,,
,0.989999,-1.06E-10,,
,0.991999,-1.07E-10,,
,0.993999,-1.07E-10,,
,0.995999,-1.08E-10,,
,0.997999,-1.09E-10,,
,0.999999,-1.09E-10,,
,1.001999,-1.10E-10,,
,1.003999,-1.11E-10,,
,1.005999,-1.12E-10,,
,1.007999,-1.13E-10,,
,1.009999,-1.13E-10,,
,1.011999,-1.14E-10,,
,1.013999,-1.15E-10,,
,1.015999,-1.15E-10,,
,1.017999,-1.15E-10,,
,1.019999,-1.16E-10,,
,1.021999,-1.17E-10,,
,1.023999,-1.17E-10,,
,1.025999,-1.18E-10,,
,1.027999,-1.18E-10,,
,1.029999,-1.19E-10,,
,1.031999,-1.20E-10,,
,1.033999,-1.21E-10,,
,1.035999,-1.21E-10,,
,1.037999,-1.22E-10,,
,1.039999,-1.22E-10,,
,1.041999,-1.23E-10,,
,1.043999,-1.23E-10,,
,1.045999,-1.23E-10,,
,1.047999,-1.24E-10,,
,1.049999,-1.24E-10,,
,1.051999,-1.25E-10,,
,1.053999,-1.25E-10,,
,1.055999,-1.25E-10,,
,1.057999,-1.25E-10,,
,1.059999,-1.26E-10,,
,1.061999,-1.26E-10,,
,1.063999,-1.27E-10,,
,1.065999,-1.27E-10,,
,1.067999,-1.28E-10,,
,1.069999,-1.29E-10,,
,1.071999,-1.29E-10,,
,1.073999,-1.29E-10,,
,1.075999,-1.29E-10,,
,1.077999,-1.29E-10,,
,1.079999,-1.29E-10,,
,1.081999,-1.28E-10,,
,1.083999,-1.28E-10,,
,1.085999,-1.28E-10,,
,1.087999,-1.28E-10,,
,1.089999,-1.28E-10,,
,1.091999,-1.28E-10,,
,1.093999,-1.28E-10,,
,1.095999,-1.28E-10,,
,1.097999,-1.28E-10,,
,1.099999,-1.27E-10,,
,1.101999,-1.27E-10,,
,1.103999,-1.26E-10,,
,1.105999,-1.26E-10,,
,1.107999,-1.25E-10,,
,1.109999,-1.24E-10,,
,1.111999,-1.23E-10,,
,1.113999,-1.23E-10,,
,1.115999,-1.22E-10,,
,1.117999,-1.21E-10,,
,1.119999,-1.20E-10,,
,1.121999,-1.19E-10,,
,1.123999,-1.18E-10,,
,1.125999,-1.17E-10,,
,1.127999,-1.16E-10,,
,1.129999,-1.15E-10,,
,1.131999,-1.14E-10,,
,1.133999,-1.13E-10,,
,1.135999,-1.12E-10,,
,1.137999,-1.11E-10,,
,1.139999,-1.10E-10,,
,1.141999,-1.09E-10,,
,1.143999,-1.08E-10,,
,1.145999,-1.07E-10,,
,1.147999,-1.06E-10,,
,1.149999,-1.05E-10,,
,1.151999,-1.05E-10,,
,1.153999,-1.04E-10,,
,1.155999,-1.04E-10,,
,1.157999,-1.03E-10,,
,1.159999,-1.02E-10,,
,1.161999,-1.02E-10,,
,1.163999,-1.01E-10,,
,1.165999,-1.01E-10,,
,1.167999,-1.01E-10,,
,1.169999,-1.01E-10,,
,1.171999,-1.01E-10,,
,1.173999,-1.01E-10,,
,1.175999,-1.01E-10,,
,1.177999,-1.01E-10,,
,1.179999,-1.01E-10,,
,1.181999,-1.01E-10,,
,1.183999,-1.02E-10,,
,1.185999,-1.02E-10,,
,1.187999,-1.03E-10,,
,1.189999,-1.04E-10,,
,1.191999,-1.04E-10,,
,1.193999,-1.05E-10,,
,1.195999,-1.06E-10,,
,1.197999,-1.07E-10,,
,1.199999,-1.08E-10,,
,1.201999,-1.09E-10,,
,1.203999,-1.10E-10,,
,1.205999,-1.12E-10,,
,1.207999,-1.13E-10,,
,1.209999,-1.15E-10,,
,1.211999,-1.16E-10,,
,1.213999,-1.18E-10,,
,1.215999,-1.19E-10,,
,1.217999,-1.21E-10,,
,1.219999,-1.23E-10,,
,1.221999,-1.25E-10,,
,1.223999,-1.27E-10,,
,1.225999,-1.29E-10,,
,1.227999,-1.31E-10,,
,1.229999,-1.33E-10,,
,1.231999,-1.35E-10,,
,1.233999,-1.38E-10,,
,1.235999,-1.40E-10,,
,1.237999,-1.42E-10,,
,1.239999,-1.45E-10,,
,1.241999,-1.47E-10,,
,1.243999,-1.49E-10,,
,1.245999,-1.51E-10,,
,1.247999,-1.53E-10,,
,1.249999,-1.56E-10,,
,1.251999,-1.58E-10,,
,1.253999,-1.61E-10,,
,1.255999,-1.63E-10,,
,1.257999,-1.65E-10,,
,1.259999,-1.68E-10,,
,1.261999,-1.70E-10,,
,1.263999,-1.73E-10,,
,1.265999,-1.75E-10,,
,1.267999,-1.78E-10,,
,1.269999,-1.80E-10,,
,1.271999,-1.83E-10,,
,1.273999,-1.85E-10,,
,1.275999,-1.88E-10,,
,1.277999,-1.90E-10,,
,1.279999,-1.92E-10,,
,1.281999,-1.94E-10,,
,1.283999,-1.96E-10,,
,1.285999,-1.98E-10,,
,1.287999,-2.00E-10,,
,1.289999,-2.02E-10,,
,1.291999,-2.04E-10,,
,1.293999,-2.06E-10,,
,1.295999,-2.08E-10,,
,1.297999,-2.10E-10,,
,1.299999,-2.12E-10,,
,1.301999,-2.13E-10,,
,1.303999,-2.15E-10,,
,1.305999,-2.17E-10,,
,1.307999,-2.18E-10,,
,1.309999,-2.20E-10,,
,1.311999,-2.21E-10,,
,1.313999,-2.22E-10,,
,1.315999,-2.23E-10,,
,1.317999,-2.24E-10,,
,1.319999,-2.25E-10,,
,1.321999,-2.26E-10,,
,1.323999,-2.27E-10,,
,1.325999,-2.27E-10,,
,1.327999,-2.28E-10,,
,1.329999,-2.29E-10,,
,1.331999,-2.29E-10,,
,1.333999,-2.30E-10,,
,1.335999,-2.31E-10,,
,1.337999,-2.32E-10,,
,1.339999,-2.32E-10,,
,1.341999,-2.32E-10,,
,1.343999,-2.32E-10,,
,1.345999,-2.33E-10,,
,1.347999,-2.33E-10,,
,1.349999,-2.33E-10,,
,1.351999,-2.33E-10,,
,1.353999,-2.33E-10,,
,1.355999,-2.33E-10,,
,1.357999,-2.33E-10,,
,1.359999,-2.34E-10,,
,1.361999,-2.33E-10,,
,1.363999,-2.33E-10,,
,1.365999,-2.33E-10,,
,1.367999,-2.33E-10,,
,1.369999,-2.32E-10,,
,1.371999,-2.32E-10,,
,1.373999,-2.32E-10,,
,1.375999,-2.31E-10,,
,1.377999,-2.30E-10,,
,1.379999,-2.28E-10,,
,1.381999,-2.27E-10,,
,1.383999,-2.26E-10,,
,1.385999,-2.25E-10,,
,1.387999,-2.24E-10,,
,1.389999,-2.23E-10,,
,1.391999,-2.22E-10,,
,1.393999,-2.21E-10,,
,1.395999,-2.19E-10,,
,1.397999,-2.18E-10,,
,1.399999,-2.16E-10,,
,1.401999,-2.14E-10,,
,1.403999,-2.13E-10,,
,1.405999,-2.11E-10,,
,1.407999,-2.09E-10,,
,1.409999,-2.07E-10,,
,1.411999,-2.06E-10,,
,1.413999,-2.03E-10,,
,1.415999,-2.01E-10,,
,1.417999,-1.99E-10,,
,1.419999,-1.97E-10,,
,1.421999,-1.95E-10,,
,1.423999,-1.93E-10,,
,1.425999,-1.90E-10,,
,1.427999,-1.88E-10,,
,1.429999,-1.86E-10,,
,1.431999,-1.83E-10,,
,1.433999,-1.81E-10,,
,1.435999,-1.79E-10,,
,1.437999,-1.76E-10,,
,1.439999,-1.74E-10,,
,1.441999,-1.72E-10,,
,1.443999,-1.69E-10,,
,1.445999,-1.67E-10,,
,1.447999,-1.65E-10,,
,1.449999,-1.62E-10,,
,1.451999,-1.60E-10,,
,1.453999,-1.58E-10,,
,1.455999,-1.55E-10,,
,1.457999,-1.53E-10,,
,1.459999,-1.51E-10,,
,1.461999,-1.48E-10,,
,1.463999,-1.46E-10,,
,1.465999,-1.44E-10,,
,1.467999,-1.42E-10,,
,1.469999,-1.40E-10,,
,1.471999,-1.37E-10,,
,1.473999,-1.35E-10,,
,1.475999,-1.33E-10,,
,1.477999,-1.30E-10,,
,1.479999,-1.28E-10,,
,1.481999,-1.26E-10,,
,1.483999,-1.24E-10,,
,1.485999,-1.22E-10,,
,1.487999,-1.20E-10,,
,1.489999,-1.18E-10,,
,1.491999,-1.15E-10,,
,1.493999,-1.13E-10,,
,1.495999,-1.11E-10,,
,1.497999,-1.09E-10,,
,1.499999,-1.08E-10,,
,1.501999,-1.06E-10,,
,1.503999,-1.04E-10,,
,1.505999,-1.02E-10,,
,1.507999,-9.99E-11,,
,1.509999,-9.83E-11,,
,1.511999,-9.65E-11,,
,1.513999,-9.50E-11,,
,1.515999,-9.34E-11,,
,1.517999,-9.20E-11,,
,1.519999,-9.07E-11,,
,1.521999,-8.93E-11,,
,1.523999,-8.82E-11,,
,1.525999,-8.67E-11,,
,1.527999,-8.52E-11,,
,1.529999,-8.37E-11,,
,1.531999,-8.22E-11,,
,1.533999,-8.10E-11,,
,1.535999,-7.97E-11,,
,1.537999,-7.87E-11,,
,1.539999,-7.78E-11,,
,1.541999,-7.68E-11,,
,1.543999,-7.56E-11,,
,1.545999,-7.43E-11,,
,1.547999,-7.29E-11,,
,1.549999,-7.20E-11,,
,1.551999,-7.10E-11,,
,1.553999,-7.01E-11,,
,1.555999,-6.92E-11,,
,1.557999,-6.83E-11,,
,1.559999,-6.73E-11,,
,1.561999,-6.63E-11,,
,1.563999,-6.51E-11,,
,1.565999,-6.41E-11,,
,1.567999,-6.35E-11,,
,1.569999,-6.27E-11,,
,1.571999,-6.18E-11,,
,1.573999,-6.05E-11,,
,1.575999,-5.95E-11,,
,1.577999,-5.84E-11,,
,1.579999,-5.76E-11,,
,1.581999,-5.65E-11,,
,1.583999,-5.57E-11,,
,1.585999,-5.49E-11,,
,1.587999,-5.41E-11,,
,1.589999,-5.31E-11,,
,1.591999,-5.18E-11,,
,1.593999,-5.03E-11,,
,1.595999,-4.88E-11,,
,1.597999,-4.72E-11,,
,1.599999,-4.59E-11,,
,1.601999,-4.48E-11,,
,1.603999,-4.39E-11,,
,1.605999,-4.25E-11,,
,1.607999,-4.14E-11,,
,1.609999,-4.01E-11,,
,1.611999,-3.91E-11,,
,1.613999,-3.80E-11,,
,1.615999,-3.70E-11,,
,1.617999,-3.58E-11,,
,1.619999,-3.45E-11,,
,1.621999,-3.32E-11,,
,1.623999,-3.21E-11,,
,1.625999,-3.08E-11,,
,1.627999,-2.99E-11,,
,1.629999,-2.86E-11,,
,1.631999,-2.75E-11,,
,1.633999,-2.62E-11,,
,1.635999,-2.55E-11,,
,1.637999,-2.45E-11,,
,1.639999,-2.36E-11,,
,1.641999,-2.25E-11,,
,1.643999,-2.14E-11,,
,1.645999,-2.03E-11,,
,1.647999,-1.96E-11,,
,1.649999,-1.89E-11,,
,1.651999,-1.81E-11,,
,1.653999,-1.68E-11,,
,1.655999,-1.54E-11,,
,1.657999,-1.38E-11,,
,1.659999,-1.25E-11,,
,1.661999,-1.11E-11,,
,1.663999,-1.00E-11,,
,1.665999,-9.04E-12,,
,1.667999,-8.08E-12,,
,1.669999,-6.90E-12,,
,1.671999,-5.50E-12,,
,1.673999,-4.32E-12,,
,1.675999,-3.25E-12,,
,1.677999,-2.07E-12,,
,1.679999,-6.69E-13,,
,1.681999,8.34E-13,,
,1.683999,2.12E-12,,
,1.685999,3.41E-12,,
,1.687999,4.81E-12,,
,1.689999,6.42E-12,,
,1.691999,7.92E-12,,
,1.693999,9.31E-12,,
,1.695999,1.08E-11,,
,1.697999,1.22E-11,,
,1.699999,1.35E-11,,
,1.701999,1.47E-11,,
,1.703999,1.63E-11,,
,1.705999,1.78E-11,,
,1.707999,1.92E-11,,
,1.709999,2.06E-11,,
,1.711999,2.19E-11,,
,1.713999,2.36E-11,,
,1.715999,2.50E-11,,
,1.717999,2.68E-11,,
,1.719999,2.85E-11,,
,1.721999,3.04E-11,,
,1.723999,3.21E-11,,
,1.725999,3.40E-11,,
,1.727999,3.58E-11,,
,1.729999,3.77E-11,,
,1.731999,3.93E-11,,
,1.733999,4.09E-11,,
,1.735999,4.25E-11,,
,1.737999,4.42E-11,,
,1.739999,4.60E-11,,
,1.741999,4.80E-11,,
,1.743999,4.97E-11,,
,1.745999,5.14E-11,,
,1.747999,5.30E-11,,
,1.749999,5.48E-11,,
,1.751999,5.67E-11,,
,1.753999,5.85E-11,,
,1.755999,6.03E-11,,
,1.757999,6.22E-11,,
,1.759999,6.41E-11,,
,1.761999,6.57E-11,,
,1.763999,6.71E-11,,
,1.765999,6.86E-11,,
,1.767999,6.98E-11,,
,1.769999,7.09E-11,,
,1.771999,7.21E-11,,
,1.773999,7.33E-11,,
,1.775999,7.44E-11,,
,1.777999,7.54E-11,,
,1.779999,7.64E-11,,
,1.781999,7.73E-11,,
,1.783999,7.78E-11,,
,1.785999,7.83E-11,,
,1.787999,7.88E-11,,
,1.789999,7.94E-11,,
,1.791999,8.01E-11,,
,1.793999,8.08E-11,,
,1.795999,8.11E-11,,
,1.797999,8.15E-11,,
,1.799999,8.15E-11,,
,1.801999,8.12E-11,,
,1.803999,8.09E-11,,
,1.805999,8.07E-11,,
,1.807999,8.07E-11,,
,1.809999,8.04E-11,,
,1.811999,8.03E-11,,
,1.813999,7.98E-11,,
,1.815999,7.97E-11,,
,1.817999,7.91E-11,,
,1.819999,7.90E-11,,
,1.821999,7.86E-11,,
,1.823999,7.82E-11,,
,1.825999,7.75E-11,,
,1.827999,7.69E-11,,
,1.829999,7.64E-11,,
,1.831999,7.59E-11,,
,1.833999,7.49E-11,,
,1.835999,7.39E-11,,
,1.837999,7.31E-11,,
,1.839999,7.24E-11,,
,1.841999,7.19E-11,,
,1.843999,7.12E-11,,
,1.845999,7.04E-11,,
,1.847999,6.94E-11,,
,1.849999,6.86E-11,,
,1.851999,6.74E-11,,
,1.853999,6.63E-11,,
,1.855999,6.54E-11,,
,1.857999,6.49E-11,,
,1.859999,6.43E-11,,
,1.861999,6.34E-11,,
,1.863999,6.21E-11,,
,1.865999,6.11E-11,,
,1.867999,5.98E-11,,
,1.869999,5.86E-11,,
,1.871999,5.73E-11,,
,1.873999,5.62E-11,,
,1.875999,5.52E-11,,
,1.877999,5.41E-11,,
,1.879999,5.29E-11,,
,1.881999,5.20E-11,,
,1.883999,5.10E-11,,
,1.885999,5.00E-11,,
,1.887999,4.89E-11,,
,1.889999,4.81E-11,,
,1.891999,4.71E-11,,
,1.893999,4.61E-11,,
,1.895999,4.51E-11,,
,1.897999,4.41E-11,,
,1.899999,4.31E-11,,
,1.901999,4.22E-11,,
,1.903999,4.13E-11,,
,1.905999,4.01E-11,,
,1.907999,3.93E-11,,
,1.909999,3.82E-11,,
,1.911999,3.77E-11,,
,1.913999,3.69E-11,,
,1.915999,3.62E-11,,
,1.917999,3.51E-11,,
,1.919999,3.42E-11,,
,1.921999,3.37E-11,,
,1.923999,3.34E-11,,
,1.925999,3.29E-11,,
,1.927999,3.23E-11,,
,1.929999,3.16E-11,,
,1.931999,3.10E-11,,
,1.933999,3.04E-11,,
,1.935999,2.95E-11,,
,1.937999,2.86E-11,,
,1.939999,2.78E-11,,
,1.941999,2.72E-11,,
,1.943999,2.65E-11,,
,1.945999,2.62E-11,,
,1.947999,2.54E-11,,
,1.949999,2.49E-11,,
,1.951999,2.39E-11,,
,1.953999,2.32E-11,,
,1.955999,2.27E-11,,
,1.957999,2.22E-11,,
,1.959999,2.18E-11,,
,1.961999,2.10E-11,,
,1.963999,2.06E-11,,
,1.965999,1.97E-11,,
,1.967999,1.87E-11,,
,1.969999,1.75E-11,,
,1.971999,1.63E-11,,
,1.973999,1.55E-11,,
,1.975999,1.45E-11,,
,1.977999,1.37E-11,,
,1.979999,1.26E-11,,
,1.981999,1.19E-11,,
,1.983999,1.07E-11,,
,1.985999,9.53E-12,,
,1.987999,8.24E-12,,
,1.989999,6.95E-12,,
,1.991999,5.56E-12,,
,1.993999,3.62E-12,,
,1.995999,1.80E-12,,
,1.997999,-1.33E-13,,
,1.999999,-1.96E-12,,
,2.001999,-3.68E-12,,
,2.003999,-5.82E-12,,
,2.005999,-8.18E-12,,
,2.007999,-1.11E-11,,
,2.009999,-1.40E-11,,
,2.011999,-1.68E-11,,
,2.013999,-1.99E-11,,
,2.015999,-2.31E-11,,
,2.017999,-2.68E-11,,
,2.019999,-3.02E-11,,
,2.021999,-3.38E-11,,
,2.023999,-3.73E-11,,
,2.025999,-4.10E-11,,
,2.027999,-4.52E-11,,
,2.029999,-4.96E-11,,
,2.031999,-5.45E-11,,
,2.033999,-5.94E-11,,
,2.035999,-6.50E-11,,
,2.037999,-7.05E-11,,
,2.039999,-7.59E-11,,
,2.041999,-8.12E-11,,
,2.043999,-8.66E-11,,
,2.045999,-9.18E-11,,
,2.047999,-9.72E-11,,
,2.049999,-1.03E-10,,
,2.051999,-1.08E-10,,
,2.053999,-1.13E-10,,
,2.055999,-1.18E-10,,
,2.057999,-1.23E-10,,
,2.059999,-1.29E-10,,
,2.061999,-1.34E-10,,
,2.063999,-1.38E-10,,
,2.065999,-1.43E-10,,
,2.067999,-1.48E-10,,
,2.069999,-1.52E-10,,
,2.071999,-1.56E-10,,
,2.073999,-1.60E-10,,
,2.075999,-1.64E-10,,
,2.077999,-1.68E-10,,
,2.079999,-1.71E-10,,
,2.081999,-1.74E-10,,
,2.083999,-1.77E-10,,
,2.085999,-1.80E-10,,
,2.087999,-1.83E-10,,
,2.089999,-1.85E-10,,
,2.091999,-1.87E-10,,
,2.093999,-1.89E-10,,
,2.095999,-1.91E-10,,
,2.097999,-1.92E-10,,
,2.099999,-1.94E-10,,
,2.101999,-1.95E-10,,
,2.103999,-1.96E-10,,
,2.105999,-1.97E-10,,
,2.107999,-1.97E-10,,
,2.109999,-1.98E-10,,
,2.111999,-1.98E-10,,
,2.113999,-1.98E-10,,
,2.115999,-1.98E-10,,
,2.117999,-1.98E-10,,
,2.119999,-1.98E-10,,
,2.121999,-1.98E-10,,
,2.123999,-1.97E-10,,
,2.125999,-1.96E-10,,
,2.127999,-1.95E-10,,
,2.129999,-1.94E-10,,
,2.131999,-1.93E-10,,
,2.133999,-1.93E-10,,
,2.135999,-1.92E-10,,
,2.137999,-1.91E-10,,
,2.139999,-1.89E-10,,
,2.141999,-1.88E-10,,
,2.143999,-1.86E-10,,
,2.145999,-1.85E-10,,
,2.147999,-1.83E-10,,
,2.149999,-1.81E-10,,
,2.151999,-1.80E-10,,
,2.153999,-1.79E-10,,
,2.155999,-1.77E-10,,
,2.157999,-1.74E-10,,
,2.159999,-1.72E-10,,
,2.161999,-1.71E-10,,
,2.163999,-1.69E-10,,
,2.165999,-1.67E-10,,
,2.167999,-1.66E-10,,
,2.169999,-1.64E-10,,
,2.171999,-1.62E-10,,
,2.173999,-1.60E-10,,
,2.175999,-1.58E-10,,
,2.177999,-1.56E-10,,
,2.179999,-1.54E-10,,
,2.181999,-1.52E-10,,
,2.183999,-1.50E-10,,
,2.185999,-1.48E-10,,
,2.187999,-1.46E-10,,
,2.189999,-1.44E-10,,
,2.191999,-1.42E-10,,
,2.193999,-1.39E-10,,
,2.195999,-1.37E-10,,
,2.197999,-1.35E-10,,
,2.199999,-1.33E-10,,
,2.201999,-1.31E-10,,
,2.203999,-1.29E-10,,
,2.205999,-1.27E-10,,
,2.207999,-1.25E-10,,
,2.209999,-1.23E-10,,
,2.211999,-1.21E-10,,
,2.213999,-1.19E-10,,
,2.215999,-1.17E-10,,
,2.217999,-1.15E-10,,
,2.219999,-1.12E-10,,
,2.221999,-1.10E-10,,
,2.223999,-1.08E-10,,
,2.225999,-1.06E-10,,
,2.227999,-1.04E-10,,
,2.229999,-1.02E-10,,
,2.231999,-1.00E-10,,
,2.233999,-9.80E-11,,
,2.235999,-9.61E-11,,
,2.237999,-9.41E-11,,
,2.239999,-9.20E-11,,
,2.241999,-9.00E-11,,
,2.243999,-8.81E-11,,
,2.245999,-8.58E-11,,
,2.247999,-8.38E-11,,
,2.249999,-8.16E-11,,
,2.251999,-7.99E-11,,
,2.253999,-7.80E-11,,
,2.255999,-7.60E-11,,
,2.257999,-7.37E-11,,
,2.259999,-7.15E-11,,
,2.261999,-6.94E-11,,
,2.263999,-6.76E-11,,
,2.265999,-6.58E-11,,
,2.267999,-6.39E-11,,
,2.269999,-6.21E-11,,
,2.271999,-6.01E-11,,
,2.273999,-5.84E-11,,
,2.275999,-5.65E-11,,
,2.277999,-5.47E-11,,
,2.279999,-5.30E-11,,
,2.281999,-5.14E-11,,
,2.283999,-4.98E-11,,
,2.285999,-4.79E-11,,
,2.287999,-4.60E-11,,
,2.289999,-4.37E-11,,
,2.291999,-4.19E-11,,
,2.293999,-3.99E-11,,
,2.295999,-3.84E-11,,
,2.297999,-3.66E-11,,
,2.299999,-3.52E-11,,
,2.301999,-3.37E-11,,
,2.303999,-3.26E-11,,
,2.305999,-3.12E-11,,
,2.307999,-3.00E-11,,
,2.309999,-2.85E-11,,
,2.311999,-2.71E-11,,
,2.313999,-2.53E-11,,
,2.315999,-2.36E-11,,
,2.317999,-2.19E-11,,
,2.319999,-2.04E-11,,
,2.321999,-1.87E-11,,
,2.323999,-1.72E-11,,
,2.325999,-1.56E-11,,
,2.327999,-1.43E-11,,
,2.329999,-1.29E-11,,
,2.331999,-1.17E-11,,
,2.333999,-1.04E-11,,
,2.335999,-9.26E-12,,
,2.337999,-7.97E-12,,
,2.339999,-6.57E-12,,
,2.341999,-5.07E-12,,
,2.343999,-3.89E-12,,
,2.345999,-2.82E-12,,
,2.347999,-1.85E-12,,
,2.349999,-8.84E-13,,
,2.351999,4.04E-13,,
,2.353999,1.59E-12,,
,2.355999,3.09E-12,,
,2.357999,4.38E-12,,
,2.359999,5.66E-12,,
,2.361999,6.85E-12,,
,2.363999,7.92E-12,,
,2.365999,9.10E-12,,
,2.367999,1.02E-11,,
,2.369999,1.09E-11,,
,2.371999,1.18E-11,,
,2.373999,1.28E-11,,
,2.375999,1.38E-11,,
,2.377999,1.48E-11,,
,2.379999,1.60E-11,,
,2.381999,1.73E-11,,
,2.383999,1.88E-11,,
,2.385999,1.98E-11,,
,2.387999,2.12E-11,,
,2.389999,2.26E-11,,
,2.391999,2.41E-11,,
,2.393999,2.52E-11,,
,2.395999,2.63E-11,,
,2.397999,2.76E-11,,
,2.399999,2.90E-11,,
,2.401999,3.01E-11,,
,2.403999,3.12E-11,,
,2.405999,3.24E-11,,
,2.407999,3.37E-11,,
,2.409999,3.49E-11,,
,2.411999,3.60E-11,,
,2.413999,3.71E-11,,
,2.415999,3.84E-11,,
,2.417999,3.95E-11,,
,2.419999,4.07E-11,,
,2.421999,4.17E-11,,
,2.423999,4.31E-11,,
,2.425999,4.45E-11,,
,2.427999,4.58E-11,,
,2.429999,4.71E-11,,
,2.431999,4.81E-11,,
,2.433999,4.89E-11,,
,2.435999,4.95E-11,,
,2.437999,5.02E-11,,
,2.439999,5.12E-11,,
,2.441999,5.19E-11,,
,2.443999,5.27E-11,,
,2.445999,5.33E-11,,
,2.447999,5.43E-11,,
,2.449999,5.52E-11,,
,2.451999,5.61E-11,,
,2.453999,5.72E-11,,
,2.455999,5.85E-11,,
,2.457999,5.96E-11,,
,2.459999,6.05E-11,,
,2.461999,6.16E-11,,
,2.463999,6.27E-11,,
,2.465999,6.37E-11,,
,2.467999,6.46E-11,,
,2.469999,6.56E-11,,
,2.471999,6.64E-11,,
,2.473999,6.76E-11,,
,2.475999,6.88E-11,,
,2.477999,7.05E-11,,
,2.479999,7.19E-11,,
,2.481999,7.34E-11,,
,2.483999,7.45E-11,,
,2.485999,7.56E-11,,
,2.487999,7.67E-11,,
,2.489999,7.80E-11,,
,2.491999,7.92E-11,,
,2.493999,8.04E-11,,
,2.495999,8.15E-11,,
,2.497999,8.24E-11,,
,2.499999,8.33E-11,,
,2.501999,8.42E-11,,
,2.503999,8.52E-11,,
,2.505999,8.61E-11,,
,2.507999,8.67E-11,,
,2.509999,8.74E-11,,
,2.511999,8.81E-11,,
,2.513999,8.89E-11,,
,2.515999,8.96E-11,,
,2.517999,9.03E-11,,
,2.519999,9.06E-11,,
,2.521999,9.11E-11,,
,2.523999,9.14E-11,,
,2.525999,9.22E-11,,
,2.527999,9.26E-11,,
,2.529999,9.32E-11,,
,2.531999,9.33E-11,,
,2.533999,9.34E-11,,
,2.535999,9.29E-11,,
,2.537999,9.29E-11,,
,2.539999,9.27E-11,,
,2.541999,9.31E-11,,
,2.543999,9.31E-11,,
,2.545999,9.31E-11,,
,2.547999,9.28E-11,,
,2.549999,9.25E-11,,
,2.551999,9.23E-11,,
,2.553999,9.17E-11,,
,2.555999,9.11E-11,,
,2.557999,9.05E-11,,
,2.559999,9.00E-11,,
,2.561999,8.93E-11,,
,2.563999,8.87E-11,,
,2.565999,8.80E-11,,
,2.567999,8.73E-11,,
,2.569999,8.64E-11,,
,2.571999,8.54E-11,,
,2.573999,8.45E-11,,
,2.575999,8.36E-11,,
,2.577999,8.24E-11,,
,2.579999,8.14E-11,,
,2.581999,8.01E-11,,
,2.583999,7.88E-11,,
,2.585999,7.76E-11,,
,2.587999,7.62E-11,,
,2.589999,7.52E-11,,
,2.591999,7.41E-11,,
,2.593999,7.31E-11,,
,2.595999,7.18E-11,,
,2.597999,7.06E-11,,
,2.599999,6.94E-11,,
,2.601999,6.81E-11,,
,2.603999,6.70E-11,,
,2.605999,6.58E-11,,
,2.607999,6.46E-11,,
,2.609999,6.31E-11,,
,2.611999,6.14E-11,,
,2.613999,6.02E-11,,
,2.615999,5.89E-11,,
,2.617999,5.77E-11,,
,2.619999,5.62E-11,,
,2.621999,5.49E-11,,
,2.623999,5.37E-11,,
,2.625999,5.27E-11,,
,2.627999,5.16E-11,,
,2.629999,5.06E-11,,
,2.631999,4.94E-11,,
,2.633999,4.82E-11,,
,2.635999,4.71E-11,,
,2.637999,4.61E-11,,
,2.639999,4.53E-11,,
,2.641999,4.44E-11,,
,2.643999,4.31E-11,,
,2.645999,4.21E-11,,
,2.647999,4.09E-11,,
,2.649999,3.99E-11,,
,2.651999,3.88E-11,,
,2.653999,3.78E-11,,
,2.655999,3.70E-11,,
,2.657999,3.62E-11,,
,2.659999,3.54E-11,,
,2.661999,3.45E-11,,
,2.663999,3.37E-11,,
,2.665999,3.28E-11,,
,2.667999,3.22E-11,,
,2.669999,3.13E-11,,
,2.671999,3.01E-11,,
,2.673999,2.92E-11,,
,2.675999,2.83E-11,,
,2.677999,2.77E-11,,
,2.679999,2.67E-11,,
,2.681999,2.60E-11,,
,2.683999,2.51E-11,,
,2.685999,2.40E-11,,
,2.687999,2.29E-11,,
,2.689999,2.22E-11,,
,2.691999,2.17E-11,,
,2.693999,2.12E-11,,
,2.695999,2.05E-11,,
,2.697999,1.98E-11,,
,2.699999,1.90E-11,,
,2.701999,1.80E-11,,
,2.703999,1.69E-11,,
,2.705999,1.60E-11,,
,2.707999,1.52E-11,,
,2.709999,1.43E-11,,
,2.711999,1.34E-11,,
,2.713999,1.26E-11,,
,2.715999,1.21E-11,,
,2.717999,1.11E-11,,
,2.719999,1.02E-11,,
,2.721999,9.31E-12,,
,2.723999,8.78E-12,,
,2.725999,8.24E-12,,
,2.727999,7.49E-12,,
,2.729999,6.85E-12,,
,2.731999,6.09E-12,,
,2.733999,5.34E-12,,
,2.735999,4.48E-12,,
,2.737999,3.73E-12,,
,2.739999,2.87E-12,,
,2.741999,2.01E-12,,
,2.743999,9.41E-13,,
,2.745999,-2.53E-14,,
,2.747999,-8.84E-13,,
,2.749999,-1.64E-12,,
,2.751999,-2.39E-12,,
,2.753999,-3.14E-12,,
,2.755999,-3.57E-12,,
,2.757999,-3.89E-12,,
,2.759999,-4.43E-12,,
,2.761999,-5.18E-12,,
,2.763999,-6.14E-12,,
,2.765999,-6.79E-12,,
,2.767999,-7.65E-12,,
,2.769999,-8.40E-12,,
,2.771999,-9.37E-12,,
,2.773999,-1.03E-11,,
,2.775999,-1.12E-11,,
,2.777999,-1.22E-11,,
,2.779999,-1.30E-11,,
,2.781999,-1.38E-11,,
,2.783999,-1.45E-11,,
,2.785999,-1.51E-11,,
,2.787999,-1.56E-11,,
,2.789999,-1.60E-11,,
,2.791999,-1.65E-11,,
,2.793999,-1.70E-11,,
,2.795999,-1.76E-11,,
,2.797999,-1.83E-11,,
,2.799999,-1.90E-11,,
,2.801999,-1.98E-11,,
,2.803999,-2.06E-11,,
,2.805999,-2.12E-11,,
,2.807999,-2.18E-11,,
,2.809999,-2.24E-11,,
,2.811999,-2.31E-11,,
,2.813999,-2.36E-11,,
,2.815999,-2.41E-11,,
,2.817999,-2.45E-11,,
,2.819999,-2.48E-11,,
,2.821999,-2.51E-11,,
,2.823999,-2.55E-11,,
,2.825999,-2.57E-11,,
,2.827999,-2.60E-11,,
,2.829999,-2.63E-11,,
,2.831999,-2.65E-11,,
,2.833999,-2.69E-11,,
,2.835999,-2.71E-11,,
,2.837999,-2.74E-11,,
,2.839999,-2.76E-11,,
,2.841999,-2.79E-11,,
,2.843999,-2.83E-11,,
,2.845999,-2.84E-11,,
,2.847999,-2.84E-11,,
,2.849999,-2.85E-11,,
,2.851999,-2.87E-11,,
,2.853999,-2.87E-11,,
,2.855999,-2.86E-11,,
,2.857999,-2.86E-11,,
,2.859999,-2.86E-11,,
,2.861999,-2.87E-11,,
,2.863999,-2.85E-11,,
,2.865999,-2.84E-11,,
,2.867999,-2.82E-11,,
,2.869999,-2.82E-11,,
,2.871999,-2.82E-11,,
,2.873999,-2.83E-11,,
,2.875999,-2.83E-11,,
,2.877999,-2.82E-11,,
,2.879999,-2.82E-11,,
,2.881999,-2.83E-11,,
,2.883999,-2.85E-11,,
,2.885999,-2.84E-11,,
,2.887999,-2.83E-11,,
,2.889999,-2.79E-11,,
,2.891999,-2.78E-11,,
,2.893999,-2.76E-11,,
,2.895999,-2.76E-11,,
,2.897999,-2.74E-11,,
,2.899999,-2.74E-11,,
,2.901999,-2.74E-11,,
,2.903999,-2.74E-11,,
,2.905999,-2.74E-11,,
,2.907999,-2.74E-11,,
,2.909999,-2.75E-11,,
,2.911999,-2.74E-11,,
,2.913999,-2.73E-11,,
,2.915999,-2.72E-11,,
,2.917999,-2.74E-11,,
,2.919999,-2.75E-11,,
,2.921999,-2.73E-11,,
,2.923999,-2.68E-11,,
,2.925999,-2.64E-11,,
,2.927999,-2.64E-11,,
,2.929999,-2.64E-11,,
,2.931999,-2.64E-11,,
,2.933999,-2.64E-11,,
,2.935999,-2.65E-11,,
,2.937999,-2.66E-11,,
,2.939999,-2.66E-11,,
,2.941999,-2.68E-11,,
,2.943999,-2.64E-11,,
,2.945999,-2.63E-11,,
,2.947999,-2.60E-11,,
,2.949999,-2.60E-11,,
,2.951999,-2.59E-11,,
,2.953999,-2.57E-11,,
,2.955999,-2.55E-11,,
,2.957999,-2.50E-11,,
,2.959999,-2.48E-11,,
,2.961999,-2.42E-11,,
,2.963999,-2.39E-11,,
,2.965999,-2.34E-11,,
,2.967999,-2.34E-11,,
,2.969999,-2.31E-11,,
,2.971999,-2.26E-11,,
,2.973999,-2.20E-11,,
,2.975999,-2.15E-11,,
,2.977999,-2.11E-11,,
,2.979999,-2.05E-11,,
,2.981999,-1.99E-11,,
,2.983999,-1.91E-11,,
,2.985999,-1.83E-11,,
,2.987999,-1.73E-11,,
,2.989999,-1.63E-11,,
,2.991999,-1.52E-11,,
,2.993999,-1.38E-11,,
,2.995999,-1.25E-11,,
,2.997999,-1.14E-11,,
,2.999999,-1.03E-11,,
,3.001999,-9.47E-12,,
,3.003999,-8.18E-12,,
,3.005999,-7.00E-12,,
,3.007999,-5.50E-12,,
,3.009999,-4.32E-12,,
,3.011999,-3.03E-12,,
,3.013999,-1.53E-12,,
,3.015999,2.97E-13,,
,3.017999,1.80E-12,,
,3.019999,3.30E-12,,
,3.021999,4.70E-12,,
,3.023999,6.52E-12,,
,3.025999,8.13E-12,,
,3.027999,9.85E-12,,
,3.029999,1.16E-11,,
,3.031999,1.33E-11,,
,3.033999,1.47E-11,,
,3.035999,1.60E-11,,
,3.037999,1.77E-11,,
,3.039999,1.95E-11,,
,3.041999,2.11E-11,,
,3.043999,2.23E-11,,
,3.045999,2.38E-11,,
,3.047999,2.51E-11,,
,3.049999,2.66E-11,,
,3.051999,2.78E-11,,
,3.053999,2.91E-11,,
,3.055999,3.01E-11,,
,3.057999,3.13E-11,,
,3.059999,3.27E-11,,
,3.061999,3.39E-11,,
,3.063999,3.51E-11,,
,3.065999,3.58E-11,,
,3.067999,3.70E-11,,
,3.069999,3.79E-11,,
,3.071999,3.89E-11,,
,3.073999,3.97E-11,,
,3.075999,4.06E-11,,
,3.077999,4.13E-11,,
,3.079999,4.21E-11,,
,3.081999,4.27E-11,,
,3.083999,4.32E-11,,
,3.085999,4.39E-11,,
,3.087999,4.45E-11,,
,3.089999,4.52E-11,,
,3.091999,4.59E-11,,
,3.093999,4.67E-11,,
,3.095999,4.75E-11,,
,3.097999,4.82E-11,,
,3.099999,4.88E-11,,
,3.101999,4.94E-11,,
,3.103999,4.99E-11,,
,3.105999,5.05E-11,,
,3.107999,5.12E-11,,
,3.109999,5.18E-11,,
,3.111999,5.25E-11,,
,3.113999,5.33E-11,,
,3.115999,5.40E-11,,
,3.117999,5.45E-11,,
,3.119999,5.50E-11,,
,3.121999,5.60E-11,,
,3.123999,5.74E-11,,
,3.125999,5.88E-11,,
,3.127999,6.03E-11,,
,3.129999,6.10E-11,,
,3.131999,6.16E-11,,
,3.133999,6.18E-11,,
,3.135999,6.18E-11,,
,3.137999,6.14E-11,,
,3.139999,6.06E-11,,
,3.141999,6.01E-11,,
,3.143999,5.90E-11,,
,3.145999,5.77E-11,,
,3.147999,5.60E-11,,
,3.149999,5.43E-11,,
,3.151999,5.23E-11,,
,3.153999,4.99E-11,,
,3.155999,4.72E-11,,
,3.157999,4.38E-11,,
,3.159999,4.03E-11,,
,3.161999,3.63E-11,,
,3.163999,3.20E-11,,
,3.165999,2.68E-11,,
,3.167999,2.12E-11,,
,3.169999,1.51E-11,,
,3.171999,8.46E-12,,
,3.173999,1.37E-12,,
,3.175999,-6.36E-12,,
,3.177999,-1.46E-11,,
,3.179999,-2.34E-11,,
,3.181999,-3.23E-11,,
,3.183999,-4.17E-11,,
,3.185999,-5.20E-11,,
,3.187999,-6.28E-11,,
,3.189999,-7.43E-11,,
,3.191999,-8.62E-11,,
,3.193999,-9.91E-11,,
,3.195999,-1.13E-10,,
,3.197999,-1.28E-10,,
,3.199999,-1.43E-10,,
,3.201999,-1.59E-10,,
,3.203999,-1.76E-10,,
,3.205999,-1.94E-10,,
,3.207999,-2.13E-10,,
,3.209999,-2.33E-10,,
,3.211999,-2.53E-10,,
,3.213999,-2.74E-10,,
,3.215999,-2.96E-10,,
,3.217999,-3.18E-10,,
,3.219999,-3.41E-10,,
,3.221999,-3.64E-10,,
,3.223999,-3.87E-10,,
,3.225999,-4.09E-10,,
,3.227999,-4.32E-10,,
,3.229999,-4.55E-10,,
,3.231999,-4.77E-10,,
,3.233999,-4.99E-10,,
,3.235999,-5.20E-10,,
,3.237999,-5.39E-10,,
,3.239999,-5.58E-10,,
,3.241999,-5.75E-10,,
,3.243999,-5.92E-10,,
,3.245999,-6.08E-10,,
,3.247999,-6.23E-10,,
,3.249999,-6.36E-10,,
,3.251999,-6.48E-10,,
,3.253999,-6.59E-10,,
,3.255999,-6.68E-10,,
,3.257999,-6.76E-10,,
,3.259999,-6.83E-10,,
,3.261999,-6.88E-10,,
,3.263999,-6.92E-10,,
,3.265999,-6.95E-10,,
,3.267999,-6.97E-10,,
,3.269999,-6.97E-10,,
,3.271999,-6.97E-10,,
,3.273999,-6.96E-10,,
,3.275999,-6.94E-10,,
,3.277999,-6.92E-10,,
,3.279999,-6.90E-10,,
,3.281999,-6.86E-10,,
,3.283999,-6.83E-10,,
,3.285999,-6.79E-10,,
,3.287999,-6.75E-10,,
,3.289999,-6.70E-10,,
,3.291999,-6.65E-10,,
,3.293999,-6.60E-10,,
,3.295999,-6.54E-10,,
,3.297999,-6.49E-10,,
,3.299999,-6.43E-10,,
,3.301999,-6.37E-10,,
,3.303999,-6.31E-10,,
,3.305999,-6.24E-10,,
,3.307999,-6.17E-10,,
,3.309999,-6.10E-10,,
,3.311999,-6.03E-10,,
,3.313999,-5.95E-10,,
,3.315999,-5.87E-10,,
,3.317999,-5.79E-10,,
,3.319999,-5.71E-10,,
,3.321999,-5.62E-10,,
,3.323999,-5.53E-10,,
,3.325999,-5.43E-10,,
,3.327999,-5.33E-10,,
,3.329999,-5.24E-10,,
,3.331999,-5.14E-10,,
,3.333999,-5.04E-10,,
,3.335999,-4.94E-10,,
,3.337999,-4.84E-10,,
,3.339999,-4.73E-10,,
,3.341999,-4.63E-10,,
,3.343999,-4.52E-10,,
,3.345999,-4.41E-10,,
,3.347999,-4.30E-10,,
,3.349999,-4.19E-10,,
,3.351999,-4.08E-10,,
,3.353999,-3.97E-10,,
,3.355999,-3.86E-10,,
,3.357999,-3.75E-10,,
,3.359999,-3.64E-10,,
,3.361999,-3.53E-10,,
,3.363999,-3.42E-10,,
,3.365999,-3.32E-10,,
,3.367999,-3.22E-10,,
,3.369999,-3.12E-10,,
,3.371999,-3.01E-10,,
,3.373999,-2.91E-10,,
,3.375999,-2.81E-10,,
,3.377999,-2.72E-10,,
,3.379999,-2.62E-10,,
,3.381999,-2.53E-10,,
,3.383999,-2.44E-10,,
,3.385999,-2.35E-10,,
,3.387999,-2.26E-10,,
,3.389999,-2.17E-10,,
,3.391999,-2.08E-10,,
,3.393999,-2.00E-10,,
,3.395999,-1.91E-10,,
,3.397999,-1.83E-10,,
,3.399999,-1.75E-10,,
,3.401999,-1.67E-10,,
,3.403999,-1.60E-10,,
,3.405999,-1.52E-10,,
,3.407999,-1.45E-10,,
,3.409999,-1.37E-10,,
,3.411999,-1.30E-10,,
,3.413999,-1.23E-10,,
,3.415999,-1.17E-10,,
,3.417999,-1.10E-10,,
,3.419999,-1.04E-10,,
,3.421999,-9.71E-11,,
,3.423999,-9.04E-11,,
,3.425999,-8.39E-11,,
,3.427999,-7.76E-11,,
,3.429999,-7.20E-11,,
,3.431999,-6.62E-11,,
,3.433999,-6.06E-11,,
,3.435999,-5.50E-11,,
,3.437999,-4.94E-11,,
,3.439999,-4.40E-11,,
,3.441999,-3.84E-11,,
,3.443999,-3.32E-11,,
,3.445999,-2.80E-11,,
,3.447999,-2.32E-11,,
,3.449999,-1.83E-11,,
,3.451999,-1.34E-11,,
,3.453999,-8.83E-12,,
,3.455999,-4.21E-12,,
,3.457999,4.04E-13,,
,3.459999,5.24E-12,,
,3.461999,9.85E-12,,
,3.463999,1.43E-11,,
,3.465999,1.83E-11,,
,3.467999,2.21E-11,,
,3.469999,2.62E-11,,
,3.471999,3.00E-11,,
,3.473999,3.41E-11,,
,3.475999,3.78E-11,,
,3.477999,4.14E-11,,
,3.479999,4.52E-11,,
,3.481999,4.87E-11,,
,3.483999,5.23E-11,,
,3.485999,5.55E-11,,
,3.487999,5.88E-11,,
,3.489999,6.20E-11,,
,3.491999,6.52E-11,,
,3.493999,6.83E-11,,
,3.495999,7.13E-11,,
,3.497999,7.41E-11,,
,3.499999,7.68E-11,,
,3.501999,7.95E-11,,
,3.503999,8.22E-11,,
,3.505999,8.50E-11,,
,3.507999,8.76E-11,,
,3.509999,9.02E-11,,
,3.511999,9.25E-11,,
,3.513999,9.50E-11,,
,3.515999,9.71E-11,,
,3.517999,9.93E-11,,
,3.519999,1.01E-10,,
,3.521999,1.04E-10,,
,3.523999,1.06E-10,,
,3.525999,1.09E-10,,
,3.527999,1.11E-10,,
,3.529999,1.13E-10,,
,3.531999,1.15E-10,,
,3.533999,1.17E-10,,
,3.535999,1.19E-10,,
,3.537999,1.20E-10,,
,3.539999,1.22E-10,,
,3.541999,1.24E-10,,
,3.543999,1.26E-10,,
,3.545999,1.29E-10,,
,3.547999,1.30E-10,,
,3.549999,1.32E-10,,
,3.551999,1.34E-10,,
,3.553999,1.35E-10,,
,3.555999,1.37E-10,,
,3.557999,1.39E-10,,
,3.559999,1.41E-10,,
,3.561999,1.43E-10,,
,3.563999,1.45E-10,,
,3.565999,1.47E-10,,
,3.567999,1.49E-10,,
,3.569999,1.51E-10,,
,3.571999,1.53E-10,,
,3.573999,1.54E-10,,
,3.575999,1.56E-10,,
,3.577999,1.58E-10,,
,3.579999,1.59E-10,,
,3.581999,1.61E-10,,
,3.583999,1.62E-10,,
,3.585999,1.63E-10,,
,3.587999,1.64E-10,,
,3.589999,1.65E-10,,
,3.591999,1.66E-10,,
,3.593999,1.68E-10,,
,3.595999,1.69E-10,,
,3.597999,1.70E-10,,
,3.599999,1.71E-10,,
,3.601999,1.71E-10,,
,3.603999,1.71E-10,,
,3.605999,1.72E-10,,
,3.607999,1.73E-10,,
,3.609999,1.73E-10,,
,3.611999,1.74E-10,,
,3.613999,1.75E-10,,
,3.615999,1.75E-10,,
,3.617999,1.76E-10,,
,3.619999,1.76E-10,,
,3.621999,1.77E-10,,
,3.623999,1.77E-10,,
,3.625999,1.77E-10,,
,3.627999,1.78E-10,,
,3.629999,1.79E-10,,
,3.631999,1.80E-10,,
,3.633999,1.80E-10,,
,3.635999,1.80E-10,,
,3.637999,1.80E-10,,
,3.639999,1.80E-10,,
,3.641999,1.80E-10,,
,3.643999,1.81E-10,,
,3.645999,1.81E-10,,
,3.647999,1.82E-10,,
,3.649999,1.82E-10,,
,3.651999,1.82E-10,,
,3.653999,1.82E-10,,
,3.655999,1.82E-10,,
,3.657999,1.82E-10,,
,3.659999,1.82E-10,,
,3.661999,1.82E-10,,
,3.663999,1.82E-10,,
,3.665999,1.82E-10,,
,3.667999,1.82E-10,,
,3.669999,1.81E-10,,
,3.671999,1.81E-10,,
,3.673999,1.81E-10,,
,3.675999,1.81E-10,,
,3.677999,1.81E-10,,
,3.679999,1.81E-10,,
,3.681999,1.81E-10,,
,3.683999,1.81E-10,,
,3.685999,1.80E-10,,
,3.687999,1.79E-10,,
,3.689999,1.79E-10,,
,3.691999,1.79E-10,,
,3.693999,1.79E-10,,
,3.695999,1.78E-10,,
,3.697999,1.78E-10,,
,3.699999,1.79E-10,,
,3.701999,1.78E-10,,
,3.703999,1.78E-10,,
,3.705999,1.77E-10,,
,3.707999,1.77E-10,,
,3.709999,1.77E-10,,
,3.711999,1.76E-10,,
,3.713999,1.76E-10,,
,3.715999,1.77E-10,,
,3.717999,1.77E-10,,
,3.719999,1.76E-10,,
,3.721999,1.76E-10,,
,3.723999,1.76E-10,,
,3.725999,1.76E-10,,
,3.727999,1.77E-10,,
,3.729999,1.77E-10,,
,3.731999,1.77E-10,,
,3.733999,1.78E-10,,
,3.735999,1.78E-10,,
,3.737999,1.78E-10,,
,3.739999,1.78E-10,,
,3.741999,1.78E-10,,
,3.743999,1.78E-10,,
,3.745999,1.79E-10,,
,3.747999,1.79E-10,,
,3.749999,1.79E-10,,
,3.751999,1.79E-10,,
,3.753999,1.79E-10,,
,3.755999,1.79E-10,,
,3.757999,1.79E-10,,
,3.759999,1.80E-10,,
,3.761999,1.80E-10,,
,3.763999,1.81E-10,,
,3.765999,1.81E-10,,
,3.767999,1.81E-10,,
,3.769999,1.81E-10,,
,3.771999,1.81E-10,,
,3.773999,1.81E-10,,
,3.775999,1.82E-10,,
,3.777999,1.82E-10,,
,3.779999,1.82E-10,,
,3.781999,1.82E-10,,
,3.783999,1.83E-10,,
,3.785999,1.83E-10,,
,3.787999,1.83E-10,,
,3.789999,1.83E-10,,
,3.791999,1.83E-10,,
,3.793999,1.84E-10,,
,3.795999,1.85E-10,,
,3.797999,1.85E-10,,
,3.799999,1.85E-10,,
,3.801999,1.85E-10,,
,3.803999,1.85E-10,,
,3.805999,1.85E-10,,
,3.807999,1.85E-10,,
,3.809999,1.85E-10,,
,3.811999,1.85E-10,,
,3.813999,1.86E-10,,
,3.815999,1.86E-10,,
,3.817999,1.85E-10,,
,3.819999,1.85E-10,,
,3.821999,1.85E-10,,
,3.823999,1.85E-10,,
,3.825999,1.85E-10,,
,3.827999,1.86E-10,,
,3.829999,1.86E-10,,
,3.831999,1.87E-10,,
,3.833999,1.87E-10,,
,3.835999,1.86E-10,,
,3.837999,1.86E-10,,
,3.839999,1.85E-10,,
,3.841999,1.85E-10,,
,3.843999,1.85E-10,,
,3.845999,1.85E-10,,
,3.847999,1.85E-10,,
,3.849999,1.85E-10,,
,3.851999,1.85E-10,,
,3.853999,1.85E-10,,
,3.855999,1.85E-10,,
,3.857999,1.84E-10,,
,3.859999,1.85E-10,,
,3.861999,1.85E-10,,
,3.863999,1.86E-10,,
,3.865999,1.86E-10,,
,3.867999,1.86E-10,,
,3.869999,1.86E-10,,
,3.871999,1.85E-10,,
,3.873999,1.85E-10,,
,3.875999,1.85E-10,,
,3.877999,1.85E-10,,
,3.879999,1.85E-10,,
,3.881999,1.86E-10,,
,3.883999,1.86E-10,,
,3.885999,1.87E-10,,
,3.887999,1.87E-10,,
,3.889999,1.87E-10,,
,3.891999,1.88E-10,,
,3.893999,1.88E-10,,
,3.895999,1.89E-10,,
,3.897999,1.90E-10,,
,3.899999,1.90E-10,,
,3.901999,1.90E-10,,
,3.903999,1.90E-10,,
,3.905999,1.90E-10,,
,3.907999,1.90E-10,,
,3.909999,1.90E-10,,
,3.911999,1.90E-10,,
,3.913999,1.91E-10,,
,3.915999,1.91E-10,,
,3.917999,1.92E-10,,
,3.919999,1.92E-10,,
,3.921999,1.92E-10,,
,3.923999,1.93E-10,,
,3.925999,1.93E-10,,
,3.927999,1.94E-10,,
,3.929999,1.95E-10,,
,3.931999,1.95E-10,,
,3.933999,1.95E-10,,
,3.935999,1.95E-10,,
,3.937999,1.95E-10,,
,3.939999,1.95E-10,,
,3.941999,1.95E-10,,
,3.943999,1.95E-10,,
,3.945999,1.96E-10,,
,3.947999,1.96E-10,,
,3.949999,1.97E-10,,
,3.951999,1.96E-10,,
,3.953999,1.96E-10,,
,3.955999,1.96E-10,,
,3.957999,1.96E-10,,
,3.959999,1.97E-10,,
,3.961999,1.97E-10,,
,3.963999,1.98E-10,,
,3.965999,1.98E-10,,
,3.967999,1.98E-10,,
,3.969999,1.97E-10,,
,3.971999,1.97E-10,,
,3.973999,1.96E-10,,
,3.975999,1.96E-10,,
,3.977999,1.96E-10,,
,3.979999,1.96E-10,,
,3.981999,1.96E-10,,
,3.983999,1.95E-10,,
,3.985999,1.95E-10,,
,3.987999,1.94E-10,,
,3.989999,1.94E-10,,
,3.991999,1.93E-10,,
,3.993999,1.93E-10,,
,3.995999,1.93E-10,,
,3.997999,1.93E-10,,
,3.999999,1.92E-10,,
,4.001999,1.91E-10,,
,4.003999,1.90E-10,,
,4.005999,1.89E-10,,
,4.007999,1.89E-10,,
,4.009999,1.88E-10,,
,4.011999,1.87E-10,,
,4.013999,1.86E-10,,
,4.015999,1.86E-10,,
,4.017999,1.85E-10,,
,4.019999,1.84E-10,,
,4.021999,1.83E-10,,
,4.023999,1.82E-10,,
,4.025999,1.82E-10,,
,4.027999,1.81E-10,,
,4.029999,1.81E-10,,
,4.031999,1.80E-10,,
,4.033999,1.79E-10,,
,4.035999,1.78E-10,,
,4.037999,1.77E-10,,
,4.039999,1.75E-10,,
,4.041999,1.74E-10,,
,4.043999,1.73E-10,,
,4.045999,1.72E-10,,
,4.047999,1.71E-10,,
,4.049999,1.70E-10,,
,4.051999,1.69E-10,,
,4.053999,1.67E-10,,
,4.055999,1.66E-10,,
,4.057999,1.65E-10,,
,4.059999,1.64E-10,,
,4.061999,1.63E-10,,
,4.063999,1.62E-10,,
,4.065999,1.61E-10,,
,4.067999,1.60E-10,,
,4.069999,1.58E-10,,
,4.071999,1.57E-10,,
,4.073999,1.56E-10,,
,4.075999,1.54E-10,,
,4.077999,1.53E-10,,
,4.079999,1.52E-10,,
,4.081999,1.51E-10,,
,4.083999,1.50E-10,,
,4.085999,1.48E-10,,
,4.087999,1.47E-10,,
,4.089999,1.45E-10,,
,4.091999,1.44E-10,,
,4.093999,1.43E-10,,
,4.095999,1.42E-10,,
,4.097999,1.41E-10,,
,4.099999,1.40E-10,,
,4.101999,1.38E-10,,
,4.103999,1.37E-10,,
,4.105999,1.35E-10,,
,4.107999,1.33E-10,,
,4.109999,1.32E-10,,
,4.111999,1.31E-10,,
,4.113999,1.29E-10,,
,4.115999,1.28E-10,,
,4.117999,1.27E-10,,
,4.119999,1.25E-10,,
,4.121999,1.23E-10,,
,4.123999,1.21E-10,,
,4.125999,1.20E-10,,
,4.127999,1.19E-10,,
,4.129999,1.18E-10,,
,4.131999,1.16E-10,,
,4.133999,1.15E-10,,
,4.135999,1.13E-10,,
,4.137999,1.11E-10,,
,4.139999,1.09E-10,,
,4.141999,1.08E-10,,
,4.143999,1.06E-10,,
,4.145999,1.05E-10,,
,4.147999,1.04E-10,,
,4.149999,1.03E-10,,
,4.151999,1.01E-10,,
,4.153999,9.92E-11,,
,4.155999,9.71E-11,,
,4.157999,9.55E-11,,
,4.159999,9.43E-11,,
,4.161999,9.36E-11,,
,4.163999,9.26E-11,,
,4.165999,9.14E-11,,
,4.167999,9.00E-11,,
,4.169999,8.87E-11,,
,4.171999,8.73E-11,,
,4.173999,8.59E-11,,
,4.175999,8.46E-11,,
,4.177999,8.34E-11,,
,4.179999,8.24E-11,,
,4.181999,8.17E-11,,
,4.183999,8.05E-11,,
,4.185999,7.92E-11,,
,4.187999,7.77E-11,,
,4.189999,7.66E-11,,
,4.191999,7.57E-11,,
,4.193999,7.49E-11,,
,4.195999,7.43E-11,,
,4.197999,7.38E-11,,
,4.199999,7.32E-11,,
,4.201999,7.23E-11,,
,4.203999,7.12E-11,,
,4.205999,7.00E-11,,
,4.207999,6.89E-11,,
,4.209999,6.79E-11,,
,4.211999,6.73E-11,,
,4.213999,6.65E-11,,
,4.215999,6.59E-11,,
,4.217999,6.47E-11,,
,4.219999,6.35E-11,,
,4.221999,6.23E-11,,
,4.223999,6.16E-11,,
,4.225999,6.11E-11,,
,4.227999,6.06E-11,,
,4.229999,6.00E-11,,
,4.231999,5.91E-11,,
,4.233999,5.82E-11,,
,4.235999,5.71E-11,,
,4.237999,5.59E-11,,
,4.239999,5.46E-11,,
,4.241999,5.34E-11,,
,4.243999,5.25E-11,,
,4.245999,5.16E-11,,
,4.247999,5.08E-11,,
,4.249999,4.96E-11,,
,4.251999,4.85E-11,,
,4.253999,4.71E-11,,
,4.255999,4.58E-11,,
,4.257999,4.45E-11,,
,4.259999,4.36E-11,,
,4.261999,4.29E-11,,
,4.263999,4.21E-11,,
,4.265999,4.11E-11,,
,4.267999,3.99E-11,,
,4.269999,3.85E-11,,
,4.271999,3.69E-11,,
,4.273999,3.51E-11,,
,4.275999,3.37E-11,,
,4.277999,3.27E-11,,
,4.279999,3.21E-11,,
,4.281999,3.11E-11,,
,4.283999,2.99E-11,,
,4.285999,2.87E-11,,
,4.287999,2.75E-11,,
,4.289999,2.64E-11,,
,4.291999,2.50E-11,,
,4.293999,2.42E-11,,
,4.295999,2.33E-11,,
,4.297999,2.28E-11,,
,4.299999,2.19E-11,,
,4.301999,2.08E-11,,
,4.303999,1.96E-11,,
,4.305999,1.87E-11,,
,4.307999,1.77E-11,,
,4.309999,1.68E-11,,
,4.311999,1.61E-11,,
,4.313999,1.56E-11,,
,4.315999,1.50E-11,,
,4.317999,1.43E-11,,
,4.319999,1.34E-11,,
,4.321999,1.25E-11,,
,4.323999,1.21E-11,,
,4.325999,1.19E-11,,
,4.327999,1.17E-11,,
,4.329999,1.15E-11,,
,4.331999,1.14E-11,,
,4.333999,1.11E-11,,
,4.335999,1.08E-11,,
,4.337999,9.96E-12,,
,4.339999,9.42E-12,,
,4.341999,8.67E-12,,
,4.343999,8.46E-12,,
,4.345999,8.35E-12,,
,4.347999,8.24E-12,,
,4.349999,7.92E-12,,
,4.351999,7.27E-12,,
,4.353999,6.52E-12,,
,4.355999,6.09E-12,,
,4.357999,5.77E-12,,
,4.359999,5.88E-12,,
,4.361999,5.99E-12,,
,4.363999,6.20E-12,,
,4.365999,6.09E-12,,
,4.367999,5.77E-12,,
,4.369999,5.45E-12,,
,4.371999,5.34E-12,,
,4.373999,5.34E-12,,
,4.375999,5.66E-12,,
,4.377999,6.31E-12,,
,4.379999,7.17E-12,,
,4.381999,8.03E-12,,
,4.383999,8.67E-12,,
,4.385999,9.10E-12,,
,4.387999,9.64E-12,,
,4.389999,1.03E-11,,
,4.391999,1.11E-11,,
,4.393999,1.20E-11,,
,4.395999,1.29E-11,,
,4.397999,1.35E-11,,
,4.399999,1.38E-11,,
,4.401999,1.36E-11,,
,4.403999,1.32E-11,,
,4.405999,1.26E-11,,
,4.407999,1.24E-11,,
,4.409999,1.23E-11,,
,4.411999,1.21E-11,,
,4.413999,1.18E-11,,
,4.415999,1.16E-11,,
,4.417999,1.11E-11,,
,4.419999,1.07E-11,,
,4.421999,1.02E-11,,
,4.423999,9.85E-12,,
,4.425999,9.53E-12,,
,4.427999,9.42E-12,,
,4.429999,9.31E-12,,
,4.431999,8.89E-12,,
,4.433999,8.13E-12,,
,4.435999,6.95E-12,,
,4.437999,5.66E-12,,
,4.439999,4.27E-12,,
,4.441999,2.98E-12,,
,4.443999,1.91E-12,,
,4.445999,5.11E-13,,
,4.447999,-8.84E-13,,
,4.449999,-2.60E-12,,
,4.451999,-4.21E-12,,
,4.453999,-6.04E-12,,
,4.455999,-7.75E-12,,
,4.457999,-9.26E-12,,
,4.459999,-1.05E-11,,
,4.461999,-1.16E-11,,
,4.463999,-1.30E-11,,
,4.465999,-1.43E-11,,
,4.467999,-1.61E-11,,
,4.469999,-1.80E-11,,
,4.471999,-2.00E-11,,
,4.473999,-2.15E-11,,
,4.475999,-2.28E-11,,
,4.477999,-2.41E-11,,
,4.479999,-2.54E-11,,
,4.481999,-2.65E-11,,
,4.483999,-2.77E-11,,
,4.485999,-2.92E-11,,
,4.487999,-3.04E-11,,
,4.489999,-3.17E-11,,
,4.491999,-3.22E-11,,
,4.493999,-3.29E-11,,
,4.495999,-3.32E-11,,
,4.497999,-3.37E-11,,
,4.499999,-3.44E-11,,
,4.501999,-3.50E-11,,
,4.503999,-3.55E-11,,
,4.505999,-3.59E-11,,
,4.507999,-3.62E-11,,
,4.509999,-3.66E-11,,
,4.511999,-3.68E-11,,
,4.513999,-3.67E-11,,
,4.515999,-3.66E-11,,
,4.517999,-3.65E-11,,
,4.519999,-3.67E-11,,
,4.521999,-3.67E-11,,
,4.523999,-3.66E-11,,
,4.525999,-3.59E-11,,
,4.527999,-3.52E-11,,
,4.529999,-3.47E-11,,
,4.531999,-3.45E-11,,
,4.533999,-3.44E-11,,
,4.535999,-3.46E-11,,
,4.537999,-3.46E-11,,
,4.539999,-3.47E-11,,
,4.541999,-3.45E-11,,
,4.543999,-3.42E-11,,
,4.545999,-3.36E-11,,
,4.547999,-3.30E-11,,
,4.549999,-3.27E-11,,
,4.551999,-3.26E-11,,
,4.553999,-3.24E-11,,
,4.555999,-3.24E-11,,
,4.557999,-3.21E-11,,
,4.559999,-3.17E-11,,
,4.561999,-3.09E-11,,
,4.563999,-3.02E-11,,
,4.565999,-2.97E-11,,
,4.567999,-2.93E-11,,
,4.569999,-2.92E-11,,
,4.571999,-2.90E-11,,
,4.573999,-2.88E-11,,
,4.575999,-2.83E-11,,
,4.577999,-2.75E-11,,
,4.579999,-2.68E-11,,
,4.581999,-2.61E-11,,
,4.583999,-2.56E-11,,
,4.585999,-2.51E-11,,
,4.587999,-2.45E-11,,
,4.589999,-2.40E-11,,
,4.591999,-2.30E-11,,
,4.593999,-2.21E-11,,
,4.595999,-2.10E-11,,
,4.597999,-1.99E-11,,
,4.599999,-1.90E-11,,
,4.601999,-1.83E-11,,
,4.603999,-1.81E-11,,
,4.605999,-1.75E-11,,
,4.607999,-1.71E-11,,
,4.609999,-1.61E-11,,
,4.611999,-1.52E-11,,
,4.613999,-1.43E-11,,
,4.615999,-1.36E-11,,
,4.617999,-1.31E-11,,
,4.619999,-1.25E-11,,
,4.621999,-1.22E-11,,
,4.623999,-1.18E-11,,
,4.625999,-1.15E-11,,
,4.627999,-1.09E-11,,
,4.629999,-1.02E-11,,
,4.631999,-9.79E-12,,
,4.633999,-1.00E-11,,
,4.635999,-1.04E-11,,
,4.637999,-1.11E-11,,
,4.639999,-1.15E-11,,
,4.641999,-1.18E-11,,
,4.643999,-1.20E-11,,
,4.645999,-1.22E-11,,
,4.647999,-1.26E-11,,
,4.649999,-1.31E-11,,
,4.651999,-1.41E-11,,
,4.653999,-1.46E-11,,
,4.655999,-1.54E-11,,
,4.657999,-1.57E-11,,
,4.659999,-1.61E-11,,
,4.661999,-1.68E-11,,
,4.663999,-1.73E-11,,
,4.665999,-1.83E-11,,
,4.667999,-1.90E-11,,
,4.669999,-2.02E-11,,
,4.671999,-2.13E-11,,
,4.673999,-2.24E-11,,
,4.675999,-2.31E-11,,
,4.677999,-2.36E-11,,
,4.679999,-2.43E-11,,
,4.681999,-2.48E-11,,
,4.683999,-2.58E-11,,
,4.685999,-2.66E-11,,
,4.687999,-2.77E-11,,
,4.689999,-2.84E-11,,
,4.691999,-2.90E-11,,
,4.693999,-2.94E-11,,
,4.695999,-3.00E-11,,
,4.697999,-3.02E-11,,
,4.699999,-3.08E-11,,
,4.701999,-3.15E-11,,
,4.703999,-3.26E-11,,
,4.705999,-3.37E-11,,
,4.707999,-3.47E-11,,
,4.709999,-3.55E-11,,
,4.711999,-3.57E-11,,
,4.713999,-3.60E-11,,
,4.715999,-3.63E-11,,
,4.717999,-3.67E-11,,
,4.719999,-3.76E-11,,
,4.721999,-3.80E-11,,
,4.723999,-3.86E-11,,
,4.725999,-3.84E-11,,
,4.727999,-3.86E-11,,
,4.729999,-3.88E-11,,
,4.731999,-3.93E-11,,
,4.733999,-4.00E-11,,
,4.735999,-4.06E-11,,
,4.737999,-4.15E-11,,
,4.739999,-4.21E-11,,
,4.741999,-4.26E-11,,
,4.743999,-4.29E-11,,
,4.745999,-4.30E-11,,
,4.747999,-4.31E-11,,
,4.749999,-4.33E-11,,
,4.751999,-4.36E-11,,
,4.753999,-4.39E-11,,
,4.755999,-4.44E-11,,
,4.757999,-4.50E-11,,
,4.759999,-4.53E-11,,
,4.761999,-4.57E-11,,
,4.763999,-4.59E-11,,
,4.765999,-4.65E-11,,
,4.767999,-4.69E-11,,
,4.769999,-4.77E-11,,
,4.771999,-4.81E-11,,
,4.773999,-4.89E-11,,
,4.775999,-4.91E-11,,
,4.777999,-4.93E-11,,
,4.779999,-4.91E-11,,
,4.781999,-4.92E-11,,
,4.783999,-4.96E-11,,
,4.785999,-5.05E-11,,
,4.787999,-5.12E-11,,
,4.789999,-5.18E-11,,
,4.791999,-5.21E-11,,
,4.793999,-5.22E-11,,
,4.795999,-5.24E-11,,
,4.797999,-5.28E-11,,
,4.799999,-5.33E-11,,
,4.801999,-5.38E-11,,
,4.803999,-5.41E-11,,
,4.805999,-5.46E-11,,
,4.807999,-5.50E-11,,
,4.809999,-5.52E-11,,
,4.811999,-5.54E-11,,
,4.813999,-5.53E-11,,
,4.815999,-5.54E-11,,
,4.817999,-5.59E-11,,
,4.819999,-5.65E-11,,
,4.821999,-5.75E-11,,
,4.823999,-5.80E-11,,
,4.825999,-5.86E-11,,
,4.827999,-5.87E-11,,
,4.829999,-5.87E-11,,
,4.831999,-5.84E-11,,
,4.833999,-5.84E-11,,
,4.835999,-5.84E-11,,
,4.837999,-5.89E-11,,
,4.839999,-5.92E-11,,
,4.841999,-5.96E-11,,
,4.843999,-5.97E-11,,
,4.845999,-5.98E-11,,
,4.847999,-5.98E-11,,
,4.849999,-6.03E-11,,
,4.851999,-6.07E-11,,
,4.853999,-6.14E-11,,
,4.855999,-6.18E-11,,
,4.857999,-6.15E-11,,
,4.859999,-6.14E-11,,
,4.861999,-6.10E-11,,
,4.863999,-6.10E-11,,
,4.865999,-6.06E-11,,
,4.867999,-6.07E-11,,
,4.869999,-6.08E-11,,
,4.871999,-6.13E-11,,
,4.873999,-6.16E-11,,
,4.875999,-6.23E-11,,
,4.877999,-6.26E-11,,
,4.879999,-6.26E-11,,
,4.881999,-6.26E-11,,
,4.883999,-6.29E-11,,
,4.885999,-6.39E-11,,
,4.887999,-6.47E-11,,
,4.889999,-6.50E-11,,
,4.891999,-6.49E-11,,
,4.893999,-6.50E-11,,
,4.895999,-6.51E-11,,
,4.897999,-6.53E-11,,
,4.899999,-6.55E-11,,
,4.901999,-6.60E-11,,
,4.903999,-6.67E-11,,
,4.905999,-6.71E-11,,
,4.907999,-6.76E-11,,
,4.909999,-6.81E-11,,
,4.911999,-6.86E-11,,
,4.913999,-6.91E-11,,
,4.915999,-6.96E-11,,
,4.917999,-7.03E-11,,
,4.919999,-7.11E-11,,
,4.921999,-7.17E-11,,
,4.923999,-7.20E-11,,
,4.925999,-7.18E-11,,
,4.927999,-7.15E-11,,
,4.929999,-7.13E-11,,
,4.931999,-7.15E-11,,
,4.933999,-7.18E-11,,
,4.935999,-7.24E-11,,
,4.937999,-7.30E-11,,
,4.939999,-7.36E-11,,
,4.941999,-7.42E-11,,
,4.943999,-7.45E-11,,
,4.945999,-7.47E-11,,
,4.947999,-7.47E-11,,
,4.949999,-7.46E-11,,
,4.951999,-7.50E-11,,
,4.953999,-7.52E-11,,
,4.955999,-7.55E-11,,
,4.957999,-7.55E-11,,
,4.959999,-7.54E-11,,
,4.961999,-7.50E-11,,
,4.963999,-7.43E-11,,
,4.965999,-7.40E-11,,
,4.967999,-7.41E-11,,
,4.969999,-7.44E-11,,
,4.971999,-7.44E-11,,
,4.973999,-7.42E-11,,
,4.975999,-7.42E-11,,
,4.977999,-7.41E-11,,
,4.979999,-7.40E-11,,
,4.981999,-7.33E-11,,
,4.983999,-7.31E-11,,
,4.985999,-7.26E-11,,
,4.987999,-7.22E-11,,
,4.989999,-7.13E-11,,
,4.991999,-7.05E-11,,
,4.993999,-6.95E-11,,
,4.995999,-6.82E-11,,
,4.997999,-6.69E-11,,
,4.999999,-6.59E-11,,
,5.001999,-6.53E-11,,
,5.003999,-6.52E-11,,
,5.005999,-6.48E-11,,
,5.007999,-6.40E-11,,
,5.009999,-6.25E-11,,
,5.011999,-6.09E-11,,
,5.013999,-5.90E-11,,
,5.015999,-5.74E-11,,
,5.017999,-5.55E-11,,
,5.019999,-5.41E-11,,
,5.021999,-5.24E-11,,
,5.023999,-5.09E-11,,
,5.025999,-4.90E-11,,
,5.027999,-4.70E-11,,
,5.029999,-4.49E-11,,
,5.031999,-4.28E-11,,
,5.033999,-4.07E-11,,
,5.035999,-3.88E-11,,
,5.037999,-3.75E-11,,
,5.039999,-3.58E-11,,
,5.041999,-3.42E-11,,
,5.043999,-3.20E-11,,
,5.045999,-3.01E-11,,
,5.047999,-2.79E-11,,
,5.049999,-2.61E-11,,
,5.051999,-2.45E-11,,
,5.053999,-2.30E-11,,
,5.055999,-2.12E-11,,
,5.057999,-1.93E-11,,
,5.059999,-1.74E-11,,
,5.061999,-1.55E-11,,
,5.063999,-1.33E-11,,
,5.065999,-1.15E-11,,
,5.067999,-9.79E-12,,
,5.069999,-8.61E-12,,
,5.071999,-7.33E-12,,
,5.073999,-6.25E-12,,
,5.075999,-4.64E-12,,
,5.077999,-2.82E-12,,
,5.079999,-9.92E-13,,
,5.081999,5.11E-13,,
,5.083999,1.91E-12,,
,5.085999,3.09E-12,,
,5.087999,4.27E-12,,
,5.089999,5.02E-12,,
,5.091999,6.09E-12,,
,5.093999,7.27E-12,,
,5.095999,8.67E-12,,
,5.097999,9.74E-12,,
,5.099999,1.06E-11,,
,5.101999,1.14E-11,,
,5.103999,1.19E-11,,
,5.105999,1.23E-11,,
,5.107999,1.28E-11,,
,5.109999,1.37E-11,,
,5.111999,1.46E-11,,
,5.113999,1.54E-11,,
,5.115999,1.59E-11,,
,5.117999,1.62E-11,,
,5.119999,1.62E-11,,
,5.121999,1.64E-11,,
,5.123999,1.66E-11,,
,5.125999,1.73E-11,,
,5.127999,1.76E-11,,
,5.129999,1.81E-11,,
,5.131999,1.87E-11,,
,5.133999,1.90E-11,,
,5.135999,1.90E-11,,
,5.137999,1.85E-11,,
,5.139999,1.82E-11,,
,5.141999,1.81E-11,,
,5.143999,1.80E-11,,
,5.145999,1.82E-11,,
,5.147999,1.81E-11,,
,5.149999,1.80E-11,,
,5.151999,1.75E-11,,
,5.153999,1.69E-11,,
,5.155999,1.65E-11,,
,5.157999,1.61E-11,,
,5.159999,1.60E-11,,
,5.161999,1.56E-11,,
,5.163999,1.54E-11,,
,5.165999,1.47E-11,,
,5.167999,1.39E-11,,
,5.169999,1.30E-11,,
,5.171999,1.21E-11,,
,5.173999,1.11E-11,,
,5.175999,1.05E-11,,
,5.177999,9.85E-12,,
,5.179999,9.31E-12,,
,5.181999,8.67E-12,,
,5.183999,7.60E-12,,
,5.185999,6.20E-12,,
,5.187999,4.48E-12,,
,5.189999,3.20E-12,,
,5.191999,2.23E-12,,
,5.193999,1.48E-12,,
,5.195999,7.26E-13,,
,5.197999,-2.53E-14,,
,5.199999,-1.31E-12,,
,5.201999,-2.82E-12,,
,5.203999,-4.43E-12,,
,5.205999,-5.93E-12,,
,5.207999,-7.00E-12,,
,5.209999,-8.18E-12,,
,5.211999,-9.15E-12,,
,5.213999,-1.02E-11,,
,5.215999,-1.13E-11,,
,5.217999,-1.25E-11,,
,5.219999,-1.39E-11,,
,5.221999,-1.53E-11,,
,5.223999,-1.66E-11,,
,5.225999,-1.77E-11,,
,5.227999,-1.88E-11,,
,5.229999,-1.98E-11,,
,5.231999,-2.09E-11,,
,5.233999,-2.20E-11,,
,5.235999,-2.36E-11,,
,5.237999,-2.51E-11,,
,5.239999,-2.66E-11,,
,5.241999,-2.77E-11,,
,5.243999,-2.87E-11,,
,5.245999,-2.94E-11,,
,5.247999,-3.03E-11,,
,5.249999,-3.14E-11,,
,5.251999,-3.29E-11,,
,5.253999,-3.44E-11,,
,5.255999,-3.58E-11,,
,5.257999,-3.70E-11,,
,5.259999,-3.75E-11,,
,5.261999,-3.80E-11,,
,5.263999,-3.85E-11,,
,5.265999,-3.95E-11,,
,5.267999,-4.07E-11,,
,5.269999,-4.21E-11,,
,5.271999,-4.31E-11,,
,5.273999,-4.39E-11,,
,5.275999,-4.47E-11,,
,5.277999,-4.57E-11,,
,5.279999,-4.63E-11,,
,5.281999,-4.69E-11,,
,5.283999,-4.78E-11,,
,5.285999,-4.89E-11,,
,5.287999,-4.98E-11,,
,5.289999,-5.06E-11,,
,5.291999,-5.12E-11,,
,5.293999,-5.18E-11,,
,5.295999,-5.22E-11,,
,5.297999,-5.30E-11,,
,5.299999,-5.37E-11,,
,5.301999,-5.47E-11,,
,5.303999,-5.55E-11,,
,5.305999,-5.66E-11,,
,5.307999,-5.76E-11,,
,5.309999,-5.82E-11,,
,5.311999,-5.86E-11,,
,5.313999,-5.92E-11,,
,5.315999,-5.98E-11,,
,5.317999,-6.06E-11,,
,5.319999,-6.15E-11,,
,5.321999,-6.25E-11,,
,5.323999,-6.35E-11,,
,5.325999,-6.40E-11,,
,5.327999,-6.47E-11,,
,5.329999,-6.51E-11,,
,5.331999,-6.58E-11,,
,5.333999,-6.67E-11,,
,5.335999,-6.79E-11,,
,5.337999,-6.89E-11,,
,5.339999,-6.99E-11,,
,5.341999,-7.07E-11,,
,5.343999,-7.13E-11,,
,5.345999,-7.18E-11,,
,5.347999,-7.25E-11,,
,5.349999,-7.32E-11,,
,5.351999,-7.44E-11,,
,5.353999,-7.57E-11,,
,5.355999,-7.69E-11,,
,5.357999,-7.79E-11,,
,5.359999,-7.86E-11,,
,5.361999,-7.94E-11,,
,5.363999,-8.01E-11,,
,5.365999,-8.08E-11,,
,5.367999,-8.17E-11,,
,5.369999,-8.29E-11,,
,5.371999,-8.43E-11,,
,5.373999,-8.55E-11,,
,5.375999,-8.64E-11,,
,5.377999,-8.72E-11,,
,5.379999,-8.78E-11,,
,5.381999,-8.83E-11,,
,5.383999,-8.92E-11,,
,5.385999,-9.04E-11,,
,5.387999,-9.18E-11,,
,5.389999,-9.27E-11,,
,5.391999,-9.33E-11,,
,5.393999,-9.37E-11,,
,5.395999,-9.42E-11,,
,5.397999,-9.47E-11,,
,5.399999,-9.56E-11,,
,5.401999,-9.66E-11,,
,5.403999,-9.78E-11,,
,5.405999,-9.86E-11,,
,5.407999,-9.94E-11,,
,5.409999,-9.98E-11,,
,5.411999,-1.00E-10,,
,5.413999,-1.00E-10,,
,5.415999,-1.01E-10,,
,5.417999,-1.02E-10,,
,5.419999,-1.02E-10,,
,5.421999,-1.03E-10,,
,5.423999,-1.03E-10,,
,5.425999,-1.04E-10,,
,5.427999,-1.04E-10,,
,5.429999,-1.04E-10,,
,5.431999,-1.04E-10,,
,5.433999,-1.04E-10,,
,5.435999,-1.05E-10,,
,5.437999,-1.05E-10,,
,5.439999,-1.06E-10,,
,5.441999,-1.05E-10,,
,5.443999,-1.06E-10,,
,5.445999,-1.06E-10,,
,5.447999,-1.05E-10,,
,5.449999,-1.05E-10,,
,5.451999,-1.05E-10,,
,5.453999,-1.06E-10,,
,5.455999,-1.06E-10,,
,5.457999,-1.06E-10,,
,5.459999,-1.06E-10,,
,5.461999,-1.05E-10,,
,5.463999,-1.04E-10,,
,5.465999,-1.04E-10,,
,5.467999,-1.04E-10,,
,5.469999,-1.04E-10,,
,5.471999,-1.04E-10,,
,5.473999,-1.04E-10,,
,5.475999,-1.04E-10,,
,5.477999,-1.04E-10,,
,5.479999,-1.03E-10,,
,5.481999,-1.02E-10,,
,5.483999,-1.01E-10,,
,5.485999,-1.01E-10,,
,5.487999,-1.01E-10,,
,5.489999,-1.01E-10,,
,5.491999,-1.01E-10,,
,5.493999,-1.00E-10,,
,5.495999,-9.98E-11,,
,5.497999,-9.92E-11,,
,5.499999,-9.86E-11,,
,5.501999,-9.80E-11,,
,5.503999,-9.79E-11,,
,5.505999,-9.76E-11,,
,5.507999,-9.70E-11,,
,5.509999,-9.62E-11,,
,5.511999,-9.56E-11,,
,5.513999,-9.50E-11,,
,5.515999,-9.46E-11,,
,5.517999,-9.42E-11,,
,5.519999,-9.40E-11,,
,5.521999,-9.37E-11,,
,5.523999,-9.36E-11,,
,5.525999,-9.33E-11,,
,5.527999,-9.29E-11,,
,5.529999,-9.22E-11,,
,5.531999,-9.19E-11,,
,5.533999,-9.15E-11,,
,5.535999,-9.14E-11,,
,5.537999,-9.12E-11,,
,5.539999,-9.10E-11,,
,5.541999,-9.05E-11,,
,5.543999,-8.98E-11,,
,5.545999,-8.90E-11,,
,5.547999,-8.83E-11,,
,5.549999,-8.81E-11,,
,5.551999,-8.79E-11,,
,5.553999,-8.78E-11,,
,5.555999,-8.79E-11,,
,5.557999,-8.77E-11,,
,5.559999,-8.76E-11,,
,5.561999,-8.68E-11,,
,5.563999,-8.61E-11,,
,5.565999,-8.51E-11,,
,5.567999,-8.47E-11,,
,5.569999,-8.42E-11,,
,5.571999,-8.42E-11,,
,5.573999,-8.37E-11,,
,5.575999,-8.32E-11,,
,5.577999,-8.25E-11,,
,5.579999,-8.16E-11,,
,5.581999,-8.10E-11,,
,5.583999,-8.04E-11,,
,5.585999,-8.03E-11,,
,5.587999,-8.03E-11,,
,5.589999,-8.01E-11,,
,5.591999,-7.96E-11,,
,5.593999,-7.86E-11,,
,5.595999,-7.78E-11,,
,5.597999,-7.66E-11,,
,5.599999,-7.58E-11,,
,5.601999,-7.54E-11,,
,5.603999,-7.52E-11,,
,5.605999,-7.46E-11,,
,5.607999,-7.39E-11,,
,5.609999,-7.31E-11,,
,5.611999,-7.23E-11,,
,5.613999,-7.13E-11,,
,5.615999,-7.05E-11,,
,5.617999,-6.98E-11,,
,5.619999,-6.94E-11,,
,5.621999,-6.89E-11,,
,5.623999,-6.84E-11,,
,5.625999,-6.76E-11,,
,5.627999,-6.65E-11,,
,5.629999,-6.52E-11,,
,5.631999,-6.40E-11,,
,5.633999,-6.29E-11,,
,5.635999,-6.24E-11,,
,5.637999,-6.18E-11,,
,5.639999,-6.11E-11,,
,5.641999,-5.99E-11,,
,5.643999,-5.90E-11,,
,5.645999,-5.80E-11,,
,5.647999,-5.70E-11,,
,5.649999,-5.62E-11,,
,5.651999,-5.52E-11,,
,5.653999,-5.45E-11,,
,5.655999,-5.35E-11,,
,5.657999,-5.26E-11,,
,5.659999,-5.13E-11,,
,5.661999,-5.01E-11,,
,5.663999,-4.86E-11,,
,5.665999,-4.76E-11,,
,5.667999,-4.66E-11,,
,5.669999,-4.60E-11,,
,5.671999,-4.51E-11,,
,5.673999,-4.43E-11,,
,5.675999,-4.33E-11,,
,5.677999,-4.21E-11,,
,5.679999,-4.08E-11,,
,5.681999,-3.96E-11,,
,5.683999,-3.89E-11,,
,5.685999,-3.84E-11,,
,5.687999,-3.79E-11,,
,5.689999,-3.71E-11,,
,5.691999,-3.61E-11,,
,5.693999,-3.49E-11,,
,5.695999,-3.37E-11,,
,5.697999,-3.24E-11,,
,5.699999,-3.13E-11,,
,5.701999,-3.03E-11,,
,5.703999,-2.98E-11,,
,5.705999,-2.91E-11,,
,5.707999,-2.86E-11,,
,5.709999,-2.75E-11,,
,5.711999,-2.65E-11,,
,5.713999,-2.55E-11,,
,5.715999,-2.45E-11,,
,5.717999,-2.39E-11,,
,5.719999,-2.34E-11,,
,5.721999,-2.32E-11,,
,5.723999,-2.26E-11,,
,5.725999,-2.18E-11,,
,5.727999,-2.07E-11,,
,5.729999,-1.98E-11,,
,5.731999,-1.88E-11,,
,5.733999,-1.82E-11,,
,5.735999,-1.77E-11,,
,5.737999,-1.72E-11,,
,5.739999,-1.67E-11,,
,5.741999,-1.59E-11,,
,5.743999,-1.52E-11,,
,5.745999,-1.42E-11,,
,5.747999,-1.34E-11,,
,5.749999,-1.28E-11,,
,5.751999,-1.25E-11,,
,5.753999,-1.22E-11,,
,5.755999,-1.19E-11,,
,5.757999,-1.15E-11,,
,5.759999,-1.07E-11,,
,5.761999,-9.69E-12,,
,5.763999,-8.94E-12,,
,5.765999,-7.97E-12,,
,5.767999,-7.33E-12,,
,5.769999,-6.47E-12,,
,5.771999,-6.25E-12,,
,5.773999,-5.72E-12,,
,5.775999,-5.07E-12,,
,5.777999,-4.10E-12,,
,5.779999,-3.25E-12,,
,5.781999,-2.49E-12,,
,5.783999,-1.96E-12,,
,5.785999,-1.53E-12,,
,5.787999,-9.92E-13,,
,5.789999,-2.40E-13,,
,5.791999,9.41E-13,,
,5.793999,2.01E-12,,
,5.795999,3.09E-12,,
,5.797999,4.16E-12,,
,5.799999,5.13E-12,,
,5.801999,5.77E-12,,
,5.803999,6.09E-12,,
,5.805999,6.52E-12,,
,5.807999,7.17E-12,,
,5.809999,8.03E-12,,
,5.811999,8.89E-12,,
,5.813999,9.85E-12,,
,5.815999,1.07E-11,,
,5.817999,1.14E-11,,
,5.819999,1.19E-11,,
,5.821999,1.22E-11,,
,5.823999,1.26E-11,,
,5.825999,1.32E-11,,
,5.827999,1.39E-11,,
,5.829999,1.47E-11,,
,5.831999,1.54E-11,,
,5.833999,1.60E-11,,
,5.835999,1.64E-11,,
,5.837999,1.65E-11,,
,5.839999,1.67E-11,,
,5.841999,1.72E-11,,
,5.843999,1.77E-11,,
,5.845999,1.84E-11,,
,5.847999,1.91E-11,,
,5.849999,1.94E-11,,
,5.851999,1.93E-11,,
,5.853999,1.90E-11,,
,5.855999,1.90E-11,,
,5.857999,1.93E-11,,
,5.859999,1.97E-11,,
,5.861999,2.04E-11,,
,5.863999,2.08E-11,,
,5.865999,2.11E-11,,
,5.867999,2.10E-11,,
,5.869999,2.09E-11,,
,5.871999,2.07E-11,,
,5.873999,2.07E-11,,
,5.875999,2.07E-11,,
,5.877999,2.09E-11,,
,5.879999,2.11E-11,,
,5.881999,2.10E-11,,
,5.883999,2.06E-11,,
,5.885999,1.98E-11,,
,5.887999,1.94E-11,,
,5.889999,1.91E-11,,
,5.891999,1.92E-11,,
,5.893999,1.92E-11,,
,5.895999,1.93E-11,,
,5.897999,1.94E-11,,
,5.899999,1.93E-11,,
,5.901999,1.89E-11,,
,5.903999,1.80E-11,,
,5.905999,1.76E-11,,
,5.907999,1.75E-11,,
,5.909999,1.74E-11,,
,5.911999,1.72E-11,,
,5.913999,1.73E-11,,
,5.915999,1.74E-11,,
,5.917999,1.72E-11,,
,5.919999,1.63E-11,,
,5.921999,1.58E-11,,
,5.923999,1.53E-11,,
,5.925999,1.55E-11,,
,5.927999,1.58E-11,,
,5.929999,1.62E-11,,
,5.931999,1.63E-11,,
,5.933999,1.63E-11,,
,5.935999,1.61E-11,,
,5.937999,1.58E-11,,
,5.939999,1.53E-11,,
,5.941999,1.52E-11,,
,5.943999,1.51E-11,,
,5.945999,1.50E-11,,
,5.947999,1.46E-11,,
,5.949999,1.40E-11,,
,5.951999,1.31E-11,,
,5.953999,1.22E-11,,
,5.955999,1.11E-11,,
,5.957999,1.05E-11,,
,5.959999,9.85E-12,,
,5.961999,9.42E-12,,
,5.963999,9.10E-12,,
,5.965999,8.46E-12,,
,5.967999,7.70E-12,,
,5.969999,6.63E-12,,
,5.971999,5.88E-12,,
,5.973999,5.24E-12,,
,5.975999,5.02E-12,,
,5.977999,4.81E-12,,
,5.979999,4.70E-12,,
,5.981999,4.16E-12,,
,5.983999,3.52E-12,,
,5.985999,2.66E-12,,
,5.987999,1.91E-12,,
,5.989999,1.37E-12,,
,5.991999,1.16E-12,,
,5.993999,1.05E-12,,
,5.995999,1.05E-12,,
,5.997999,1.16E-12,,
,5.999999,1.16E-12,,
,6.001999,8.34E-13,,
,6.003999,8.20E-14,,
,6.005999,-4.55E-13,,
,6.007999,-1.10E-12,,
,6.009999,-1.64E-12,,
,6.011999,-2.28E-12,,
,6.013999,-2.60E-12,,
,6.015999,-3.03E-12,,
,6.017999,-3.78E-12,,
,6.019999,-4.64E-12,,
,6.021999,-5.61E-12,,
,6.023999,-6.25E-12,,
,6.025999,-7.00E-12,,
,6.027999,-7.43E-12,,
,6.029999,-7.97E-12,,
,6.031999,-8.40E-12,,
,6.033999,-9.04E-12,,
,6.035999,-9.79E-12,,
,6.037999,-1.10E-11,,
,6.039999,-1.20E-11,,
,6.041999,-1.30E-11,,
,6.043999,-1.36E-11,,
,6.045999,-1.42E-11,,
,6.047999,-1.51E-11,,
,6.049999,-1.61E-11,,
,6.051999,-1.72E-11,,
,6.053999,-1.82E-11,,
,6.055999,-1.90E-11,,
,6.057999,-1.97E-11,,
,6.059999,-2.01E-11,,
,6.061999,-2.04E-11,,
,6.063999,-2.09E-11,,
,6.065999,-2.13E-11,,
,6.067999,-2.19E-11,,
,6.069999,-2.27E-11,,
,6.071999,-2.35E-11,,
,6.073999,-2.45E-11,,
,6.075999,-2.50E-11,,
,6.077999,-2.55E-11,,
,6.079999,-2.55E-11,,
,6.081999,-2.57E-11,,
,6.083999,-2.61E-11,,
,6.085999,-2.68E-11,,
,6.087999,-2.75E-11,,
,6.089999,-2.80E-11,,
,6.091999,-2.86E-11,,
,6.093999,-2.88E-11,,
,6.095999,-2.89E-11,,
,6.097999,-2.88E-11,,
,6.099999,-2.92E-11,,
,6.101999,-2.99E-11,,
,6.103999,-3.06E-11,,
,6.105999,-3.09E-11,,
,6.107999,-3.14E-11,,
,6.109999,-3.15E-11,,
,6.111999,-3.16E-11,,
,6.113999,-3.15E-11,,
,6.115999,-3.18E-11,,
,6.117999,-3.21E-11,,
,6.119999,-3.24E-11,,
,6.121999,-3.28E-11,,
,6.123999,-3.31E-11,,
,6.125999,-3.32E-11,,
,6.127999,-3.29E-11,,
,6.129999,-3.24E-11,,
,6.131999,-3.22E-11,,
,6.133999,-3.23E-11,,
,6.135999,-3.28E-11,,
,6.137999,-3.31E-11,,
,6.139999,-3.34E-11,,
,6.141999,-3.34E-11,,
,6.143999,-3.34E-11,,
,6.145999,-3.31E-11,,
,6.147999,-3.29E-11,,
,6.149999,-3.27E-11,,
,6.151999,-3.29E-11,,
,6.153999,-3.33E-11,,
,6.155999,-3.36E-11,,
,6.157999,-3.38E-11,,
,6.159999,-3.37E-11,,
,6.161999,-3.35E-11,,
,6.163999,-3.30E-11,,
,6.165999,-3.27E-11,,
,6.167999,-3.28E-11,,
,6.169999,-3.31E-11,,
,6.171999,-3.33E-11,,
,6.173999,-3.32E-11,,
,6.175999,-3.29E-11,,
,6.177999,-3.26E-11,,
,6.179999,-3.22E-11,,
,6.181999,-3.20E-11,,
,6.183999,-3.17E-11,,
,6.185999,-3.18E-11,,
,6.187999,-3.20E-11,,
,6.189999,-3.22E-11,,
,6.191999,-3.21E-11,,
,6.193999,-3.20E-11,,
,6.195999,-3.16E-11,,
,6.197999,-3.13E-11,,
,6.199999,-3.09E-11,,
,6.201999,-3.11E-11,,
,6.203999,-3.11E-11,,
,6.205999,-3.09E-11,,
,6.207999,-3.09E-11,,
,6.209999,-3.06E-11,,
,6.211999,-3.02E-11,,
,6.213999,-2.95E-11,,
,6.215999,-2.93E-11,,
,6.217999,-2.93E-11,,
,6.219999,-2.97E-11,,
,6.221999,-2.99E-11,,
,6.223999,-2.99E-11,,
,6.225999,-2.94E-11,,
,6.227999,-2.88E-11,,
,6.229999,-2.80E-11,,
,6.231999,-2.72E-11,,
,6.233999,-2.66E-11,,
,6.235999,-2.64E-11,,
,6.237999,-2.64E-11,,
,6.239999,-2.62E-11,,
,6.241999,-2.56E-11,,
,6.243999,-2.50E-11,,
,6.245999,-2.42E-11,,
,6.247999,-2.36E-11,,
,6.249999,-2.31E-11,,
,6.251999,-2.30E-11,,
,6.253999,-2.28E-11,,
,6.255999,-2.26E-11,,
,6.257999,-2.19E-11,,
,6.259999,-2.14E-11,,
,6.261999,-2.05E-11,,
,6.263999,-2.01E-11,,
,6.265999,-1.96E-11,,
,6.267999,-1.93E-11,,
,6.269999,-1.91E-11,,
,6.271999,-1.92E-11,,
,6.273999,-1.90E-11,,
,6.275999,-1.86E-11,,
,6.277999,-1.82E-11,,
,6.279999,-1.77E-11,,
,6.281999,-1.74E-11,,
,6.283999,-1.70E-11,,
,6.285999,-1.71E-11,,
,6.287999,-1.74E-11,,
,6.289999,-1.75E-11,,
,6.291999,-1.75E-11,,
,6.293999,-1.71E-11,,
,6.295999,-1.66E-11,,
,6.297999,-1.59E-11,,
,6.299999,-1.56E-11,,
,6.301999,-1.56E-11,,
,6.303999,-1.56E-11,,
,6.305999,-1.57E-11,,
,6.307999,-1.58E-11,,
,6.309999,-1.57E-11,,
,6.311999,-1.55E-11,,
,6.313999,-1.51E-11,,
,6.315999,-1.47E-11,,
,6.317999,-1.46E-11,,
,6.319999,-1.48E-11,,
,6.321999,-1.53E-11,,
,6.323999,-1.55E-11,,
,6.325999,-1.54E-11,,
,6.327999,-1.49E-11,,
,6.329999,-1.46E-11,,
,6.331999,-1.42E-11,,
,6.333999,-1.41E-11,,
,6.335999,-1.40E-11,,
,6.337999,-1.41E-11,,
,6.339999,-1.41E-11,,
,6.341999,-1.38E-11,,
,6.343999,-1.37E-11,,
,6.345999,-1.33E-11,,
,6.347999,-1.33E-11,,
,6.349999,-1.33E-11,,
,6.351999,-1.38E-11,,
,6.353999,-1.40E-11,,
,6.355999,-1.41E-11,,
,6.357999,-1.40E-11,,
,6.359999,-1.38E-11,,
,6.361999,-1.33E-11,,
,6.363999,-1.28E-11,,
,6.365999,-1.27E-11,,
,6.367999,-1.27E-11,,
,6.369999,-1.30E-11,,
,6.371999,-1.30E-11,,
,6.373999,-1.31E-11,,
,6.375999,-1.28E-11,,
,6.377999,-1.28E-11,,
,6.379999,-1.27E-11,,
,6.381999,-1.29E-11,,
,6.383999,-1.29E-11,,
,6.385999,-1.29E-11,,
,6.387999,-1.29E-11,,
,6.389999,-1.31E-11,,
,6.391999,-1.30E-11,,
,6.393999,-1.27E-11,,
,6.395999,-1.20E-11,,
,6.397999,-1.18E-11,,
,6.399999,-1.16E-11,,
,6.401999,-1.18E-11,,
,6.403999,-1.23E-11,,
,6.405999,-1.26E-11,,
,6.407999,-1.26E-11,,
,6.409999,-1.23E-11,,
,6.411999,-1.23E-11,,
,6.413999,-1.22E-11,,
,6.415999,-1.22E-11,,
,6.417999,-1.23E-11,,
,6.419999,-1.24E-11,,
,6.421999,-1.27E-11,,
,6.423999,-1.27E-11,,
,6.425999,-1.28E-11,,
,6.427999,-1.26E-11,,
,6.429999,-1.22E-11,,
,6.431999,-1.19E-11,,
,6.433999,-1.16E-11,,
,6.435999,-1.19E-11,,
,6.437999,-1.22E-11,,
,6.439999,-1.28E-11,,
,6.441999,-1.30E-11,,
,6.443999,-1.29E-11,,
,6.445999,-1.25E-11,,
,6.447999,-1.20E-11,,
,6.449999,-1.23E-11,,
,6.451999,-1.25E-11,,
,6.453999,-1.26E-11,,
,6.455999,-1.25E-11,,
,6.457999,-1.24E-11,,
,6.459999,-1.25E-11,,
,6.461999,-1.24E-11,,
,6.463999,-1.23E-11,,
,6.465999,-1.19E-11,,
,6.467999,-1.18E-11,,
,6.469999,-1.22E-11,,
,6.471999,-1.27E-11,,
,6.473999,-1.29E-11,,
,6.475999,-1.26E-11,,
,6.477999,-1.22E-11,,
,6.479999,-1.17E-11,,
,6.481999,-1.16E-11,,
,6.483999,-1.16E-11,,
,6.485999,-1.19E-11,,
,6.487999,-1.20E-11,,
,6.489999,-1.24E-11,,
,6.491999,-1.20E-11,,
,6.493999,-1.22E-11,,
,6.495999,-1.16E-11,,
,6.497999,-1.15E-11,,
,6.499999,-1.14E-11,,
,6.501999,-1.15E-11,,
,6.503999,-1.19E-11,,
,6.505999,-1.18E-11,,
,6.507999,-1.19E-11,,
,6.509999,-1.15E-11,,
,6.511999,-1.14E-11,,
,6.513999,-1.09E-11,,
,6.515999,-1.07E-11,,
,6.517999,-1.04E-11,,
,6.519999,-1.09E-11,,
,6.521999,-1.11E-11,,
,6.523999,-1.13E-11,,
,6.525999,-1.13E-11,,
,6.527999,-1.13E-11,,
,6.529999,-1.11E-11,,
,6.531999,-1.09E-11,,
,6.533999,-1.07E-11,,
,6.535999,-1.07E-11,,
,6.537999,-1.07E-11,,
,6.539999,-1.08E-11,,
,6.541999,-1.08E-11,,
,6.543999,-1.05E-11,,
,6.545999,-1.02E-11,,
,6.547999,-9.90E-12,,
,6.549999,-9.79E-12,,
,6.551999,-9.90E-12,,
,6.553999,-1.03E-11,,
,6.555999,-1.07E-11,,
,6.557999,-1.08E-11,,
,6.559999,-1.05E-11,,
,6.561999,-1.04E-11,,
,6.563999,-1.03E-11,,
,6.565999,-1.03E-11,,
,6.567999,-1.03E-11,,
,6.569999,-1.08E-11,,
,6.571999,-1.09E-11,,
,6.573999,-1.10E-11,,
,6.575999,-1.07E-11,,
,6.577999,-1.04E-11,,
,6.579999,-1.02E-11,,
,6.581999,-1.03E-11,,
,6.583999,-1.07E-11,,
,6.585999,-1.12E-11,,
,6.587999,-1.16E-11,,
,6.589999,-1.23E-11,,
,6.591999,-1.24E-11,,
,6.593999,-1.25E-11,,
,6.595999,-1.23E-11,,
,6.597999,-1.23E-11,,
,6.599999,-1.23E-11,,
,6.601999,-1.23E-11,,
,6.603999,-1.26E-11,,
,6.605999,-1.29E-11,,
,6.607999,-1.31E-11,,
,6.609999,-1.30E-11,,
,6.611999,-1.29E-11,,
,6.613999,-1.29E-11,,
,6.615999,-1.30E-11,,
,6.617999,-1.32E-11,,
,6.619999,-1.39E-11,,
,6.621999,-1.46E-11,,
,6.623999,-1.51E-11,,
,6.625999,-1.49E-11,,
,6.627999,-1.45E-11,,
,6.629999,-1.43E-11,,
,6.631999,-1.41E-11,,
,6.633999,-1.41E-11,,
,6.635999,-1.42E-11,,
,6.637999,-1.46E-11,,
,6.639999,-1.47E-11,,
,6.641999,-1.47E-11,,
,6.643999,-1.44E-11,,
,6.645999,-1.45E-11,,
,6.647999,-1.43E-11,,
,6.649999,-1.45E-11,,
,6.651999,-1.46E-11,,
,6.653999,-1.51E-11,,
,6.655999,-1.53E-11,,
,6.657999,-1.52E-11,,
,6.659999,-1.51E-11,,
,6.661999,-1.44E-11,,
,6.663999,-1.42E-11,,
,6.665999,-1.40E-11,,
,6.667999,-1.42E-11,,
,6.669999,-1.43E-11,,
,6.671999,-1.44E-11,,
,6.673999,-1.44E-11,,
,6.675999,-1.43E-11,,
,6.677999,-1.40E-11,,
,6.679999,-1.37E-11,,
,6.681999,-1.34E-11,,
,6.683999,-1.37E-11,,
,6.685999,-1.39E-11,,
,6.687999,-1.43E-11,,
,6.689999,-1.43E-11,,
,6.691999,-1.42E-11,,
,6.693999,-1.38E-11,,
,6.695999,-1.33E-11,,
,6.697999,-1.32E-11,,
,6.699999,-1.29E-11,,
,6.701999,-1.29E-11,,
,6.703999,-1.27E-11,,
,6.705999,-1.29E-11,,
,6.707999,-1.27E-11,,
,6.709999,-1.25E-11,,
,6.711999,-1.20E-11,,
,6.713999,-1.17E-11,,
,6.715999,-1.14E-11,,
,6.717999,-1.13E-11,,
,6.719999,-1.15E-11,,
,6.721999,-1.18E-11,,
,6.723999,-1.20E-11,,
,6.725999,-1.18E-11,,
,6.727999,-1.15E-11,,
,6.729999,-1.11E-11,,
,6.731999,-1.07E-11,,
,6.733999,-1.05E-11,,
,6.735999,-1.03E-11,,
,6.737999,-1.03E-11,,
,6.739999,-9.90E-12,,
,6.741999,-9.90E-12,,
,6.743999,-9.90E-12,,
,6.745999,-9.90E-12,,
,6.747999,-9.58E-12,,
,6.749999,-9.37E-12,,
,6.751999,-9.47E-12,,
,6.753999,-9.69E-12,,
,6.755999,-9.79E-12,,
,6.757999,-9.69E-12,,
,6.759999,-9.47E-12,,
,6.761999,-9.15E-12,,
,6.763999,-8.72E-12,,
,6.765999,-8.29E-12,,
,6.767999,-8.29E-12,,
,6.769999,-8.40E-12,,
,6.771999,-8.83E-12,,
,6.773999,-8.72E-12,,
,6.775999,-8.61E-12,,
,6.777999,-8.29E-12,,
,6.779999,-7.97E-12,,
,6.781999,-7.86E-12,,
,6.783999,-7.75E-12,,
,6.785999,-8.18E-12,,
,6.787999,-8.40E-12,,
,6.789999,-8.61E-12,,
,6.791999,-8.61E-12,,
,6.793999,-8.51E-12,,
,6.795999,-8.40E-12,,
,6.797999,-8.08E-12,,
,6.799999,-7.97E-12,,
,6.801999,-7.97E-12,,
,6.803999,-8.18E-12,,
,6.805999,-8.51E-12,,
,6.807999,-8.61E-12,,
,6.809999,-8.51E-12,,
,6.811999,-8.18E-12,,
,6.813999,-8.08E-12,,
,6.815999,-7.97E-12,,
,6.817999,-8.29E-12,,
,6.819999,-8.61E-12,,
,6.821999,-9.04E-12,,
,6.823999,-9.37E-12,,
,6.825999,-9.58E-12,,
,6.827999,-9.58E-12,,
,6.829999,-9.15E-12,,
,6.831999,-8.83E-12,,
,6.833999,-8.72E-12,,
,6.835999,-9.15E-12,,
,6.837999,-9.47E-12,,
,6.839999,-9.90E-12,,
,6.841999,-9.79E-12,,
,6.843999,-9.79E-12,,
,6.845999,-9.69E-12,,
,6.847999,-9.79E-12,,
,6.849999,-9.79E-12,,
,6.851999,-1.02E-11,,
,6.853999,-1.05E-11,,
,6.855999,-1.10E-11,,
,6.857999,-1.09E-11,,
,6.859999,-1.09E-11,,
,6.861999,-1.08E-11,,
,6.863999,-1.07E-11,,
,6.865999,-1.07E-11,,
,6.867999,-1.07E-11,,
,6.869999,-1.12E-11,,
,6.871999,-1.16E-11,,
,6.873999,-1.20E-11,,
,6.875999,-1.22E-11,,
,6.877999,-1.22E-11,,
,6.879999,-1.23E-11,,
,6.881999,-1.23E-11,,
,6.883999,-1.26E-11,,
,6.885999,-1.29E-11,,
,6.887999,-1.34E-11,,
,6.889999,-1.36E-11,,
,6.891999,-1.38E-11,,
,6.893999,-1.36E-11,,
,6.895999,-1.38E-11,,
,6.897999,-1.36E-11,,
,6.899999,-1.38E-11,,
,6.901999,-1.40E-11,,
,6.903999,-1.46E-11,,
,6.905999,-1.51E-11,,
,6.907999,-1.54E-11,,
,6.909999,-1.54E-11,,
,6.911999,-1.55E-11,,
,6.913999,-1.56E-11,,
,6.915999,-1.56E-11,,
,6.917999,-1.58E-11,,
,6.919999,-1.61E-11,,
,6.921999,-1.67E-11,,
,6.923999,-1.69E-11,,
,6.925999,-1.70E-11,,
,6.927999,-1.70E-11,,
,6.929999,-1.69E-11,,
,6.931999,-1.67E-11,,
,6.933999,-1.69E-11,,
,6.935999,-1.75E-11,,
,6.937999,-1.82E-11,,
,6.939999,-1.86E-11,,
,6.941999,-1.86E-11,,
,6.943999,-1.87E-11,,
,6.945999,-1.85E-11,,
,6.947999,-1.87E-11,,
,6.949999,-1.87E-11,,
,6.951999,-1.91E-11,,
,6.953999,-1.97E-11,,
,6.955999,-2.03E-11,,
,6.957999,-2.06E-11,,
,6.959999,-2.05E-11,,
,6.961999,-2.03E-11,,
,6.963999,-2.03E-11,,
,6.965999,-2.05E-11,,
,6.967999,-2.10E-11,,
,6.969999,-2.16E-11,,
,6.971999,-2.19E-11,,
,6.973999,-2.24E-11,,
,6.975999,-2.24E-11,,
,6.977999,-2.25E-11,,
,6.979999,-2.25E-11,,
,6.981999,-2.25E-11,,
,6.983999,-2.26E-11,,
,6.985999,-2.30E-11,,
,6.987999,-2.36E-11,,
,6.989999,-2.41E-11,,
,6.991999,-2.43E-11,,
,6.993999,-2.43E-11,,
,6.995999,-2.43E-11,,
,6.997999,-2.44E-11,,
,6.999999,-2.45E-11,,
,7.001999,-2.48E-11,,
,7.003999,-2.51E-11,,
,7.005999,-2.56E-11,,
,7.007999,-2.59E-11,,
,7.009999,-2.59E-11,,
,7.011999,-2.57E-11,,
,7.013999,-2.57E-11,,
,7.015999,-2.57E-11,,
,7.017999,-2.61E-11,,
,7.019999,-2.64E-11,,
,7.021999,-2.69E-11,,
,7.023999,-2.73E-11,,
,7.025999,-2.74E-11,,
,7.027999,-2.76E-11,,
,7.029999,-2.73E-11,,
,7.031999,-2.73E-11,,
,7.033999,-2.74E-11,,
,7.035999,-2.80E-11,,
,7.037999,-2.87E-11,,
,7.039999,-2.90E-11,,
,7.041999,-2.93E-11,,
,7.043999,-2.92E-11,,
,7.045999,-2.91E-11,,
,7.047999,-2.89E-11,,
,7.049999,-2.91E-11,,
,7.051999,-2.95E-11,,
,7.053999,-3.00E-11,,
,7.055999,-3.04E-11,,
,7.057999,-3.06E-11,,
,7.059999,-3.06E-11,,
,7.061999,-3.05E-11,,
,7.063999,-3.03E-11,,
,7.065999,-3.05E-11,,
,7.067999,-3.07E-11,,
,7.069999,-3.13E-11,,
,7.071999,-3.17E-11,,
,7.073999,-3.20E-11,,
,7.075999,-3.21E-11,,
,7.077999,-3.20E-11,,
,7.079999,-3.19E-11,,
,7.081999,-3.20E-11,,
,7.083999,-3.21E-11,,
,7.085999,-3.27E-11,,
,7.087999,-3.30E-11,,
,7.089999,-3.33E-11,,
,7.091999,-3.33E-11,,
,7.093999,-3.36E-11,,
,7.095999,-3.37E-11,,
,7.097999,-3.38E-11,,
,7.099999,-3.37E-11,,
,7.101999,-3.39E-11,,
,7.103999,-3.45E-11,,
,7.105999,-3.49E-11,,
,7.107999,-3.51E-11,,
,7.109999,-3.52E-11,,
,7.111999,-3.53E-11,,
,7.113999,-3.53E-11,,
,7.115999,-3.55E-11,,
,7.117999,-3.57E-11,,
,7.119999,-3.64E-11,,
,7.121999,-3.68E-11,,
,7.123999,-3.72E-11,,
,7.125999,-3.72E-11,,
,7.127999,-3.72E-11,,
,7.129999,-3.71E-11,,
,7.131999,-3.71E-11,,
,7.133999,-3.73E-11,,
,7.135999,-3.79E-11,,
,7.137999,-3.85E-11,,
,7.139999,-3.87E-11,,
,7.141999,-3.88E-11,,
,7.143999,-3.89E-11,,
,7.145999,-3.90E-11,,
,7.147999,-3.89E-11,,
,7.149999,-3.91E-11,,
,7.151999,-3.96E-11,,
,7.153999,-4.03E-11,,
,7.155999,-4.08E-11,,
,7.157999,-4.13E-11,,
,7.159999,-4.14E-11,,
,7.161999,-4.10E-11,,
,7.163999,-4.08E-11,,
,7.165999,-4.08E-11,,
,7.167999,-4.13E-11,,
,7.169999,-4.17E-11,,
,7.171999,-4.22E-11,,
,7.173999,-4.25E-11,,
,7.175999,-4.26E-11,,
,7.177999,-4.28E-11,,
,7.179999,-4.26E-11,,
,7.181999,-4.25E-11,,
,7.183999,-4.26E-11,,
,7.185999,-4.30E-11,,
,7.187999,-4.35E-11,,
,7.189999,-4.38E-11,,
,7.191999,-4.43E-11,,
,7.193999,-4.44E-11,,
,7.195999,-4.44E-11,,
,7.197999,-4.40E-11,,
,7.199999,-4.41E-11,,
,7.201999,-4.43E-11,,
,7.203999,-4.47E-11,,
,7.205999,-4.49E-11,,
,7.207999,-4.50E-11,,
,7.209999,-4.50E-11,,
,7.211999,-4.49E-11,,
,7.213999,-4.49E-11,,
,7.215999,-4.51E-11,,
,7.217999,-4.55E-11,,
,7.219999,-4.63E-11,,
,7.221999,-4.70E-11,,
,7.223999,-4.76E-11,,
,7.225999,-4.78E-11,,
,7.227999,-4.78E-11,,
,7.229999,-4.79E-11,,
,7.231999,-4.79E-11,,
,7.233999,-4.80E-11,,
,7.235999,-4.83E-11,,
,7.237999,-4.89E-11,,
,7.239999,-4.93E-11,,
,7.241999,-4.94E-11,,
,7.243999,-4.93E-11,,
,7.245999,-4.93E-11,,
,7.247999,-4.93E-11,,
,7.249999,-4.96E-11,,
,7.251999,-5.01E-11,,
,7.253999,-5.05E-11,,
,7.255999,-5.08E-11,,
,7.257999,-5.11E-11,,
,7.259999,-5.11E-11,,
,7.261999,-5.07E-11,,
,7.263999,-5.01E-11,,
,7.265999,-4.96E-11,,
,7.267999,-4.95E-11,,
,7.269999,-4.95E-11,,
,7.271999,-4.96E-11,,
,7.273999,-4.98E-11,,
,7.275999,-4.96E-11,,
,7.277999,-4.93E-11,,
,7.279999,-4.87E-11,,
,7.281999,-4.83E-11,,
,7.283999,-4.82E-11,,
,7.285999,-4.83E-11,,
,7.287999,-4.83E-11,,
,7.289999,-4.80E-11,,
,7.291999,-4.73E-11,,
,7.293999,-4.65E-11,,
,7.295999,-4.57E-11,,
,7.297999,-4.49E-11,,
,7.299999,-4.43E-11,,
,7.301999,-4.37E-11,,
,7.303999,-4.34E-11,,
,7.305999,-4.29E-11,,
,7.307999,-4.24E-11,,
,7.309999,-4.17E-11,,
,7.311999,-4.09E-11,,
,7.313999,-4.00E-11,,
,7.315999,-3.93E-11,,
,7.317999,-3.89E-11,,
,7.319999,-3.86E-11,,
,7.321999,-3.81E-11,,
,7.323999,-3.73E-11,,
,7.325999,-3.63E-11,,
,7.327999,-3.50E-11,,
,7.329999,-3.39E-11,,
,7.331999,-3.31E-11,,
,7.333999,-3.26E-11,,
,7.335999,-3.21E-11,,
,7.337999,-3.16E-11,,
,7.339999,-3.09E-11,,
,7.341999,-3.02E-11,,
,7.343999,-2.94E-11,,
,7.345999,-2.86E-11,,
,7.347999,-2.75E-11,,
,7.349999,-2.68E-11,,
,7.351999,-2.61E-11,,
,7.353999,-2.60E-11,,
,7.355999,-2.54E-11,,
,7.357999,-2.49E-11,,
,7.359999,-2.40E-11,,
,7.361999,-2.32E-11,,
,7.363999,-2.22E-11,,
,7.365999,-2.16E-11,,
,7.367999,-2.11E-11,,
,7.369999,-2.10E-11,,
,7.371999,-2.09E-11,,
,7.373999,-2.06E-11,,
,7.375999,-2.00E-11,,
,7.377999,-1.90E-11,,
,7.379999,-1.81E-11,,
,7.381999,-1.74E-11,,
,7.383999,-1.69E-11,,
,7.385999,-1.68E-11,,
,7.387999,-1.66E-11,,
,7.389999,-1.63E-11,,
,7.391999,-1.59E-11,,
,7.393999,-1.54E-11,,
,7.395999,-1.49E-11,,
,7.397999,-1.42E-11,,
,7.399999,-1.38E-11,,
,7.401999,-1.36E-11,,
,7.403999,-1.37E-11,,
,7.405999,-1.36E-11,,
,7.407999,-1.33E-11,,
,7.409999,-1.29E-11,,
,7.411999,-1.25E-11,,
,7.413999,-1.19E-11,,
,7.415999,-1.15E-11,,
,7.417999,-1.11E-11,,
,7.419999,-1.12E-11,,
,7.421999,-1.13E-11,,
,7.423999,-1.15E-11,,
,7.425999,-1.13E-11,,
,7.427999,-1.10E-11,,
,7.429999,-1.05E-11,,
,7.431999,-1.01E-11,,
,7.433999,-1.00E-11,,
,7.435999,-1.00E-11,,
,7.437999,-1.02E-11,,
,7.439999,-1.02E-11,,
,7.441999,-1.01E-11,,
,7.443999,-9.79E-12,,
,7.445999,-9.47E-12,,
,7.447999,-9.04E-12,,
,7.449999,-8.83E-12,,
,7.451999,-8.83E-12,,
,7.453999,-9.26E-12,,
,7.455999,-9.58E-12,,
,7.457999,-9.69E-12,,
,7.459999,-9.69E-12,,
,7.461999,-9.58E-12,,
,7.463999,-9.58E-12,,
,7.465999,-9.47E-12,,
,7.467999,-9.69E-12,,
,7.469999,-9.90E-12,,
,7.471999,-1.00E-11,,
,7.473999,-1.01E-11,,
,7.475999,-1.00E-11,,
,7.477999,-1.00E-11,,
,7.479999,-9.58E-12,,
,7.481999,-9.47E-12,,
,7.483999,-9.47E-12,,
,7.485999,-9.90E-12,,
,7.487999,-1.05E-11,,
,7.489999,-1.12E-11,,
,7.491999,-1.14E-11,,
,7.493999,-1.13E-11,,
,7.495999,-1.09E-11,,
,7.497999,-1.07E-11,,
,7.499999,-1.03E-11,,
,7.501999,-1.03E-11,,
,7.503999,-1.05E-11,,
,7.505999,-1.07E-11,,
,7.507999,-1.09E-11,,
,7.509999,-1.08E-11,,
,7.511999,-1.05E-11,,
,7.513999,-1.00E-11,,
,7.515999,-9.79E-12,,
,7.517999,-9.90E-12,,
,7.519999,-1.02E-11,,
,7.521999,-1.04E-11,,
,7.523999,-1.03E-11,,
,7.525999,-1.03E-11,,
,7.527999,-9.90E-12,,
,7.529999,-9.58E-12,,
,7.531999,-9.15E-12,,
,7.533999,-8.94E-12,,
,7.535999,-9.04E-12,,
,7.537999,-8.94E-12,,
,7.539999,-9.15E-12,,
,7.541999,-9.15E-12,,
,7.543999,-9.15E-12,,
,7.545999,-8.94E-12,,
,7.547999,-8.40E-12,,
,7.549999,-8.40E-12,,
,7.551999,-8.40E-12,,
,7.553999,-8.94E-12,,
,7.555999,-9.04E-12,,
,7.557999,-9.15E-12,,
,7.559999,-9.04E-12,,
,7.561999,-8.94E-12,,
,7.563999,-8.83E-12,,
,7.565999,-8.83E-12,,
,7.567999,-9.04E-12,,
,7.569999,-9.37E-12,,
,7.571999,-9.79E-12,,
,7.573999,-1.01E-11,,
,7.575999,-1.02E-11,,
,7.577999,-1.01E-11,,
,7.579999,-1.01E-11,,
,7.581999,-1.00E-11,,
,7.583999,-1.03E-11,,
,7.585999,-1.07E-11,,
,7.587999,-1.13E-11,,
,7.589999,-1.19E-11,,
,7.591999,-1.23E-11,,
,7.593999,-1.25E-11,,
,7.595999,-1.27E-11,,
,7.597999,-1.31E-11,,
,7.599999,-1.38E-11,,
,7.601999,-1.44E-11,,
,7.603999,-1.54E-11,,
,7.605999,-1.66E-11,,
,7.607999,-1.76E-11,,
,7.609999,-1.83E-11,,
,7.611999,-1.87E-11,,
,7.613999,-1.91E-11,,
,7.615999,-2.02E-11,,
,7.617999,-2.16E-11,,
,7.619999,-2.33E-11,,
,7.621999,-2.49E-11,,
,7.623999,-2.64E-11,,
,7.625999,-2.79E-11,,
,7.627999,-2.94E-11,,
,7.629999,-3.09E-11,,
,7.631999,-3.28E-11,,
,7.633999,-3.46E-11,,
,7.635999,-3.71E-11,,
,7.637999,-3.92E-11,,
,7.639999,-4.16E-11,,
,7.641999,-4.37E-11,,
,7.643999,-4.59E-11,,
,7.645999,-4.80E-11,,
,7.647999,-5.02E-11,,
,7.649999,-5.27E-11,,
,7.651999,-5.54E-11,,
,7.653999,-5.82E-11,,
,7.655999,-6.09E-11,,
,7.657999,-6.35E-11,,
,7.659999,-6.59E-11,,
,7.661999,-6.82E-11,,
,7.663999,-7.07E-11,,
,7.665999,-7.31E-11,,
,7.667999,-7.60E-11,,
,7.669999,-7.88E-11,,
,7.671999,-8.18E-11,,
,7.673999,-8.44E-11,,
,7.675999,-8.68E-11,,
,7.677999,-8.87E-11,,
,7.679999,-9.07E-11,,
,7.681999,-9.30E-11,,
,7.683999,-9.55E-11,,
,7.685999,-9.81E-11,,
,7.687999,-1.01E-10,,
,7.689999,-1.03E-10,,
,7.691999,-1.05E-10,,
,7.693999,-1.07E-10,,
,7.695999,-1.10E-10,,
,7.697999,-1.12E-10,,
,7.699999,-1.14E-10,,
,7.701999,-1.16E-10,,
,7.703999,-1.19E-10,,
,7.705999,-1.22E-10,,
,7.707999,-1.25E-10,,
,7.709999,-1.27E-10,,
,7.711999,-1.29E-10,,
,7.713999,-1.31E-10,,
,7.715999,-1.34E-10,,
,7.717999,-1.37E-10,,
,7.719999,-1.40E-10,,
,7.721999,-1.44E-10,,
,7.723999,-1.47E-10,,
,7.725999,-1.50E-10,,
,7.727999,-1.54E-10,,
,7.729999,-1.57E-10,,
,7.731999,-1.60E-10,,
,7.733999,-1.64E-10,,
,7.735999,-1.68E-10,,
,7.737999,-1.71E-10,,
,7.739999,-1.75E-10,,
,7.741999,-1.79E-10,,
,7.743999,-1.82E-10,,
,7.745999,-1.85E-10,,
,7.747999,-1.88E-10,,
,7.749999,-1.92E-10,,
,7.751999,-1.95E-10,,
,7.753999,-1.98E-10,,
,7.755999,-2.01E-10,,
,7.757999,-2.04E-10,,
,7.759999,-2.07E-10,,
,7.761999,-2.09E-10,,
,7.763999,-2.11E-10,,
,7.765999,-2.13E-10,,
,7.767999,-2.15E-10,,
,7.769999,-2.17E-10,,
,7.771999,-2.19E-10,,
,7.773999,-2.20E-10,,
,7.775999,-2.21E-10,,
,7.777999,-2.22E-10,,
,7.779999,-2.22E-10,,
,7.781999,-2.23E-10,,
,7.783999,-2.23E-10,,
,7.785999,-2.24E-10,,
,7.787999,-2.25E-10,,
,7.789999,-2.25E-10,,
,7.791999,-2.25E-10,,
,7.793999,-2.24E-10,,
,7.795999,-2.24E-10,,
,7.797999,-2.23E-10,,
,7.799999,-2.22E-10,,
,7.801999,-2.22E-10,,
,7.803999,-2.21E-10,,
,7.805999,-2.20E-10,,
,7.807999,-2.19E-10,,
,7.809999,-2.18E-10,,
,7.811999,-2.17E-10,,
,7.813999,-2.16E-10,,
,7.815999,-2.15E-10,,
,7.817999,-2.13E-10,,
,7.819999,-2.13E-10,,
,7.821999,-2.12E-10,,
,7.823999,-2.11E-10,,
,7.825999,-2.09E-10,,
,7.827999,-2.07E-10,,
,7.829999,-2.06E-10,,
,7.831999,-2.04E-10,,
,7.833999,-2.03E-10,,
,7.835999,-2.01E-10,,
,7.837999,-2.00E-10,,
,7.839999,-1.99E-10,,
,7.841999,-1.98E-10,,
,7.843999,-1.96E-10,,
,7.845999,-1.94E-10,,
,7.847999,-1.93E-10,,
,7.849999,-1.91E-10,,
,7.851999,-1.90E-10,,
,7.853999,-1.89E-10,,
,7.855999,-1.88E-10,,
,7.857999,-1.86E-10,,
,7.859999,-1.84E-10,,
,7.861999,-1.82E-10,,
,7.863999,-1.80E-10,,
,7.865999,-1.79E-10,,
,7.867999,-1.77E-10,,
,7.869999,-1.75E-10,,
,7.871999,-1.74E-10,,
,7.873999,-1.72E-10,,
,7.875999,-1.70E-10,,
,7.877999,-1.68E-10,,
,7.879999,-1.66E-10,,
,7.881999,-1.64E-10,,
,7.883999,-1.62E-10,,
,7.885999,-1.61E-10,,
,7.887999,-1.59E-10,,
,7.889999,-1.57E-10,,
,7.891999,-1.55E-10,,
,7.893999,-1.53E-10,,
,7.895999,-1.51E-10,,
,7.897999,-1.49E-10,,
,7.899999,-1.47E-10,,
,7.901999,-1.45E-10,,
,7.903999,-1.44E-10,,
,7.905999,-1.42E-10,,
,7.907999,-1.40E-10,,
,7.909999,-1.39E-10,,
,7.911999,-1.36E-10,,
,7.913999,-1.34E-10,,
,7.915999,-1.32E-10,,
,7.917999,-1.30E-10,,
,7.919999,-1.29E-10,,
,7.921999,-1.27E-10,,
,7.923999,-1.26E-10,,
,7.925999,-1.23E-10,,
,7.927999,-1.22E-10,,
,7.929999,-1.20E-10,,
,7.931999,-1.18E-10,,
,7.933999,-1.17E-10,,
,7.935999,-1.15E-10,,
,7.937999,-1.13E-10,,
,7.939999,-1.12E-10,,
,7.941999,-1.10E-10,,
,7.943999,-1.08E-10,,
,7.945999,-1.07E-10,,
,7.947999,-1.05E-10,,
,7.949999,-1.03E-10,,
,7.951999,-1.02E-10,,
,7.953999,-1.01E-10,,
,7.955999,-9.92E-11,,
,7.957999,-9.77E-11,,
,7.959999,-9.61E-11,,
,7.961999,-9.42E-11,,
,7.963999,-9.20E-11,,
,7.965999,-9.02E-11,,
,7.967999,-8.86E-11,,
,7.969999,-8.74E-11,,
,7.971999,-8.60E-11,,
,7.973999,-8.43E-11,,
,7.975999,-8.25E-11,,
,7.977999,-8.05E-11,,
,7.979999,-7.88E-11,,
,7.981999,-7.68E-11,,
,7.983999,-7.50E-11,,
,7.985999,-7.33E-11,,
,7.987999,-7.21E-11,,
,7.989999,-7.08E-11,,
,7.991999,-6.89E-11,,
,7.993999,-6.69E-11,,
,7.995999,-6.45E-11,,
,7.997999,-6.23E-11,,
,7.999999,-6.03E-11,,
,8.001999,-5.85E-11,,
,8.003999,-5.69E-11,,
,8.005999,-5.52E-11,,
,8.007999,-5.32E-11,,
,8.009999,-5.09E-11,,
,8.011999,-4.86E-11,,
,8.013999,-4.61E-11,,
,8.015999,-4.38E-11,,
,8.017999,-4.17E-11,,
,8.019999,-3.95E-11,,
,8.021999,-3.75E-11,,
,8.023999,-3.55E-11,,
,8.025999,-3.33E-11,,
,8.027999,-3.09E-11,,
,8.029999,-2.82E-11,,
,8.031999,-2.55E-11,,
,8.033999,-2.29E-11,,
,8.035999,-2.05E-11,,
,8.037999,-1.81E-11,,
,8.039999,-1.54E-11,,
,8.041999,-1.26E-11,,
,8.043999,-9.69E-12,,
,8.045999,-6.57E-12,,
,8.047999,-3.46E-12,,
,8.049999,-2.53E-14,,
,8.051999,3.20E-12,,
,8.053999,6.63E-12,,
,8.055999,9.96E-12,,
,8.057999,1.37E-11,,
,8.059999,1.78E-11,,
,8.061999,2.21E-11,,
,8.063999,2.64E-11,,
,8.065999,3.08E-11,,
,8.067999,3.50E-11,,
,8.069999,3.95E-11,,
,8.071999,4.37E-11,,
,8.073999,4.82E-11,,
,8.075999,5.28E-11,,
,8.077999,5.78E-11,,
,8.079999,6.29E-11,,
,8.081999,6.79E-11,,
,8.083999,7.28E-11,,
,8.085999,7.73E-11,,
,8.087999,8.17E-11,,
,8.089999,8.59E-11,,
,8.091999,9.04E-11,,
,8.093999,9.47E-11,,
,8.095999,9.90E-11,,
,8.097999,1.03E-10,,
,8.099999,1.07E-10,,
,8.101999,1.11E-10,,
,8.103999,1.14E-10,,
,8.105999,1.17E-10,,
,8.107999,1.20E-10,,
,8.109999,1.24E-10,,
,8.111999,1.27E-10,,
,8.113999,1.29E-10,,
,8.115999,1.32E-10,,
,8.117999,1.33E-10,,
,8.119999,1.35E-10,,
,8.121999,1.37E-10,,
,8.123999,1.39E-10,,
,8.125999,1.41E-10,,
,8.127999,1.42E-10,,
,8.129999,1.44E-10,,
,8.131999,1.45E-10,,
,8.133999,1.47E-10,,
,8.135999,1.48E-10,,
,8.137999,1.48E-10,,
,8.139999,1.49E-10,,
,8.141999,1.50E-10,,
,8.143999,1.52E-10,,
,8.145999,1.53E-10,,
,8.147999,1.54E-10,,
,8.149999,1.55E-10,,
,8.151999,1.56E-10,,
,8.153999,1.56E-10,,
,8.155999,1.57E-10,,
,8.157999,1.58E-10,,
,8.159999,1.58E-10,,
,8.161999,1.59E-10,,
,8.163999,1.61E-10,,
,8.165999,1.61E-10,,
,8.167999,1.62E-10,,
,8.169999,1.62E-10,,
,8.171999,1.62E-10,,
,8.173999,1.62E-10,,
,8.175999,1.62E-10,,
,8.177999,1.63E-10,,
,8.179999,1.63E-10,,
,8.181999,1.63E-10,,
,8.183999,1.63E-10,,
,8.185999,1.62E-10,,
,8.187999,1.61E-10,,
,8.189999,1.61E-10,,
,8.191999,1.60E-10,,
,8.193999,1.60E-10,,
,8.195999,1.60E-10,,
,8.197999,1.60E-10,,
,8.199999,1.59E-10,,
,8.201999,1.57E-10,,
,8.203999,1.56E-10,,
,8.205999,1.55E-10,,
,8.207999,1.54E-10,,
,8.209999,1.53E-10,,
,8.211999,1.52E-10,,
,8.213999,1.51E-10,,
,8.215999,1.50E-10,,
,8.217999,1.48E-10,,
,8.219999,1.47E-10,,
,8.221999,1.45E-10,,
,8.223999,1.43E-10,,
,8.225999,1.42E-10,,
,8.227999,1.41E-10,,
,8.229999,1.40E-10,,
,8.231999,1.39E-10,,
,8.233999,1.37E-10,,
,8.235999,1.36E-10,,
,8.237999,1.34E-10,,
,8.239999,1.32E-10,,
,8.241999,1.31E-10,,
,8.243999,1.30E-10,,
,8.245999,1.28E-10,,
,8.247999,1.27E-10,,
,8.249999,1.26E-10,,
,8.251999,1.24E-10,,
,8.253999,1.23E-10,,
,8.255999,1.21E-10,,
,8.257999,1.20E-10,,
,8.259999,1.19E-10,,
,8.261999,1.18E-10,,
,8.263999,1.17E-10,,
,8.265999,1.16E-10,,
,8.267999,1.14E-10,,
,8.269999,1.13E-10,,
,8.271999,1.11E-10,,
,8.273999,1.10E-10,,
,8.275999,1.09E-10,,
,8.277999,1.08E-10,,
,8.279999,1.07E-10,,
,8.281999,1.06E-10,,
,8.283999,1.05E-10,,
,8.285999,1.03E-10,,
,8.287999,1.02E-10,,
,8.289999,1.01E-10,,
,8.291999,1.00E-10,,
,8.293999,9.88E-11,,
,8.295999,9.82E-11,,
,8.297999,9.73E-11,,
,8.299999,9.63E-11,,
,8.301999,9.48E-11,,
,8.303999,9.35E-11,,
,8.305999,9.22E-11,,
,8.307999,9.10E-11,,
,8.309999,8.98E-11,,
,8.311999,8.91E-11,,
,8.313999,8.83E-11,,
,8.315999,8.74E-11,,
,8.317999,8.61E-11,,
,8.319999,8.46E-11,,
,8.321999,8.30E-11,,
,8.323999,8.17E-11,,
,8.325999,8.05E-11,,
,8.327999,7.95E-11,,
,8.329999,7.85E-11,,
,8.331999,7.74E-11,,
,8.333999,7.60E-11,,
,8.335999,7.45E-11,,
,8.337999,7.28E-11,,
,8.339999,7.16E-11,,
,8.341999,7.03E-11,,
,8.343999,6.94E-11,,
,8.345999,6.84E-11,,
,8.347999,6.73E-11,,
,8.349999,6.60E-11,,
,8.351999,6.44E-11,,
,8.353999,6.27E-11,,
,8.355999,6.10E-11,,
,8.357999,5.93E-11,,
,8.359999,5.82E-11,,
,8.361999,5.70E-11,,
,8.363999,5.60E-11,,
,8.365999,5.48E-11,,
,8.367999,5.35E-11,,
,8.369999,5.20E-11,,
,8.371999,5.05E-11,,
,8.373999,4.91E-11,,
,8.375999,4.82E-11,,
,8.377999,4.72E-11,,
,8.379999,4.65E-11,,
,8.381999,4.54E-11,,
,8.383999,4.44E-11,,
,8.385999,4.30E-11,,
,8.387999,4.17E-11,,
,8.389999,4.03E-11,,
,8.391999,3.93E-11,,
,8.393999,3.83E-11,,
,8.395999,3.77E-11,,
,8.397999,3.70E-11,,
,8.399999,3.63E-11,,
,8.401999,3.55E-11,,
,8.403999,3.47E-11,,
,8.405999,3.40E-11,,
,8.407999,3.34E-11,,
,8.409999,3.29E-11,,
,8.411999,3.27E-11,,
,8.413999,3.24E-11,,
,8.415999,3.22E-11,,
,8.417999,3.14E-11,,
,8.419999,3.08E-11,,
,8.421999,2.98E-11,,
,8.423999,2.94E-11,,
,8.425999,2.90E-11,,
,8.427999,2.89E-11,,
,8.429999,2.87E-11,,
,8.431999,2.85E-11,,
,8.433999,2.81E-11,,
,8.435999,2.77E-11,,
,8.437999,2.71E-11,,
,8.439999,2.67E-11,,
,8.441999,2.63E-11,,
,8.443999,2.63E-11,,
,8.445999,2.64E-11,,
,8.447999,2.63E-11,,
,8.449999,2.55E-11,,
,8.451999,2.49E-11,,
,8.453999,2.41E-11,,
,8.455999,2.36E-11,,
,8.457999,2.31E-11,,
,8.459999,2.27E-11,,
,8.461999,2.27E-11,,
,8.463999,2.27E-11,,
,8.465999,2.26E-11,,
,8.467999,2.23E-11,,
,8.469999,2.16E-11,,
,8.471999,2.09E-11,,
,8.473999,2.05E-11,,
,8.475999,2.04E-11,,
,8.477999,2.02E-11,,
,8.479999,1.99E-11,,
,8.481999,1.98E-11,,
,8.483999,1.94E-11,,
,8.485999,1.87E-11,,
,8.487999,1.79E-11,,
,8.489999,1.72E-11,,
,8.491999,1.67E-11,,
,8.493999,1.64E-11,,
,8.495999,1.64E-11,,
,8.497999,1.63E-11,,
,8.499999,1.58E-11,,
,8.501999,1.51E-11,,
,8.503999,1.45E-11,,
,8.505999,1.40E-11,,
,8.507999,1.34E-11,,
,8.509999,1.29E-11,,
,8.511999,1.23E-11,,
,8.513999,1.21E-11,,
,8.515999,1.18E-11,,
,8.517999,1.12E-11,,
,8.519999,1.07E-11,,
,8.521999,9.96E-12,,
,8.523999,9.42E-12,,
,8.525999,9.10E-12,,
,8.527999,8.99E-12,,
,8.529999,8.89E-12,,
,8.531999,8.67E-12,,
,8.533999,8.24E-12,,
,8.535999,7.60E-12,,
,8.537999,6.95E-12,,
,8.539999,6.63E-12,,
,8.541999,6.52E-12,,
,8.543999,6.42E-12,,
,8.545999,6.42E-12,,
,8.547999,6.31E-12,,
,8.549999,5.99E-12,,
,8.551999,5.56E-12,,
,8.553999,5.13E-12,,
,8.555999,4.70E-12,,
,8.557999,4.27E-12,,
,8.559999,4.05E-12,,
,8.561999,4.05E-12,,
,8.563999,4.05E-12,,
,8.565999,4.05E-12,,
,8.567999,3.84E-12,,
,8.569999,3.41E-12,,
,8.571999,2.66E-12,,
,8.573999,2.23E-12,,
,8.575999,1.69E-12,,
,8.577999,1.37E-12,,
,8.579999,9.41E-13,,
,8.581999,6.19E-13,,
,8.583999,-2.53E-14,,
,8.585999,-8.84E-13,,
,8.587999,-1.74E-12,,
,8.589999,-2.39E-12,,
,8.591999,-3.25E-12,,
,8.593999,-4.10E-12,,
,8.595999,-4.96E-12,,
,8.597999,-5.72E-12,,
,8.599999,-6.57E-12,,
,8.601999,-7.75E-12,,
,8.603999,-8.94E-12,,
,8.605999,-1.02E-11,,
,8.607999,-1.12E-11,,
,8.609999,-1.24E-11,,
,8.611999,-1.31E-11,,
,8.613999,-1.42E-11,,
,8.615999,-1.49E-11,,
,8.617999,-1.65E-11,,
,8.619999,-1.80E-11,,
,8.621999,-1.96E-11,,
,8.623999,-2.05E-11,,
,8.625999,-2.14E-11,,
,8.627999,-2.21E-11,,
,8.629999,-2.30E-11,,
,8.631999,-2.36E-11,,
,8.633999,-2.45E-11,,
,8.635999,-2.57E-11,,
,8.637999,-2.72E-11,,
,8.639999,-2.84E-11,,
,8.641999,-2.92E-11,,
,8.643999,-2.97E-11,,
,8.645999,-3.03E-11,,
,8.647999,-3.09E-11,,
,8.649999,-3.16E-11,,
,8.651999,-3.24E-11,,
,8.653999,-3.35E-11,,
,8.655999,-3.46E-11,,
,8.657999,-3.53E-11,,
,8.659999,-3.58E-11,,
,8.661999,-3.63E-11,,
,8.663999,-3.68E-11,,
,8.665999,-3.77E-11,,
,8.667999,-3.88E-11,,
,8.669999,-3.97E-11,,
,8.671999,-4.06E-11,,
,8.673999,-4.14E-11,,
,8.675999,-4.20E-11,,
,8.677999,-4.25E-11,,
,8.679999,-4.28E-11,,
,8.681999,-4.34E-11,,
,8.683999,-4.40E-11,,
,8.685999,-4.52E-11,,
,8.687999,-4.62E-11,,
,8.689999,-4.73E-11,,
,8.691999,-4.79E-11,,
,8.693999,-4.88E-11,,
,8.695999,-4.92E-11,,
,8.697999,-4.99E-11,,
,8.699999,-5.05E-11,,
,8.701999,-5.16E-11,,
,8.703999,-5.26E-11,,
,8.705999,-5.38E-11,,
,8.707999,-5.49E-11,,
,8.709999,-5.57E-11,,
,8.711999,-5.64E-11,,
,8.713999,-5.69E-11,,
,8.715999,-5.75E-11,,
,8.717999,-5.85E-11,,
,8.719999,-6.00E-11,,
,8.721999,-6.13E-11,,
,8.723999,-6.24E-11,,
,8.725999,-6.30E-11,,
,8.727999,-6.40E-11,,
,8.729999,-6.49E-11,,
,8.731999,-6.60E-11,,
,8.733999,-6.73E-11,,
,8.735999,-6.86E-11,,
,8.737999,-7.01E-11,,
,8.739999,-7.15E-11,,
,8.741999,-7.28E-11,,
,8.743999,-7.35E-11,,
,8.745999,-7.40E-11,,
,8.747999,-7.47E-11,,
,8.749999,-7.57E-11,,
,8.751999,-7.71E-11,,
,8.753999,-7.85E-11,,
,8.755999,-7.98E-11,,
,8.757999,-8.09E-11,,
,8.759999,-8.17E-11,,
,8.761999,-8.26E-11,,
,8.763999,-8.31E-11,,
,8.765999,-8.40E-11,,
,8.767999,-8.51E-11,,
,8.769999,-8.62E-11,,
,8.771999,-8.74E-11,,
,8.773999,-8.81E-11,,
,8.775999,-8.89E-11,,
,8.777999,-8.92E-11,,
,8.779999,-9.00E-11,,
,8.781999,-9.05E-11,,
,8.783999,-9.14E-11,,
,8.785999,-9.21E-11,,
,8.787999,-9.29E-11,,
,8.789999,-9.36E-11,,
,8.791999,-9.41E-11,,
,8.793999,-9.42E-11,,
,8.795999,-9.41E-11,,
,8.797999,-9.42E-11,,
,8.799999,-9.46E-11,,
,8.801999,-9.50E-11,,
,8.803999,-9.54E-11,,
,8.805999,-9.55E-11,,
,8.807999,-9.55E-11,,
,8.809999,-9.54E-11,,
,8.811999,-9.51E-11,,
,8.813999,-9.48E-11,,
,8.815999,-9.46E-11,,
,8.817999,-9.45E-11,,
,8.819999,-9.45E-11,,
,8.821999,-9.44E-11,,
,8.823999,-9.42E-11,,
,8.825999,-9.37E-11,,
,8.827999,-9.32E-11,,
,8.829999,-9.26E-11,,
,8.831999,-9.21E-11,,
,8.833999,-9.19E-11,,
,8.835999,-9.24E-11,,
,8.837999,-9.30E-11,,
,8.839999,-9.40E-11,,
,8.841999,-9.45E-11,,
,8.843999,-9.55E-11,,
,8.845999,-9.65E-11,,
,8.847999,-9.83E-11,,
,8.849999,-1.00E-10,,
,8.851999,-1.03E-10,,
,8.853999,-1.05E-10,,
,8.855999,-1.07E-10,,
,8.857999,-1.10E-10,,
,8.859999,-1.12E-10,,
,8.861999,-1.14E-10,,
,8.863999,-1.17E-10,,
,8.865999,-1.19E-10,,
,8.867999,-1.21E-10,,
,8.869999,-1.23E-10,,
,8.871999,-1.25E-10,,
,8.873999,-1.27E-10,,
,8.875999,-1.28E-10,,
,8.877999,-1.29E-10,,
,8.879999,-1.30E-10,,
,8.881999,-1.31E-10,,
,8.883999,-1.31E-10,,
,8.885999,-1.32E-10,,
,8.887999,-1.33E-10,,
,8.889999,-1.34E-10,,
,8.891999,-1.34E-10,,
,8.893999,-1.34E-10,,
,8.895999,-1.34E-10,,
,8.897999,-1.33E-10,,
,8.899999,-1.33E-10,,
,8.901999,-1.33E-10,,
,8.903999,-1.33E-10,,
,8.905999,-1.33E-10,,
,8.907999,-1.32E-10,,
,8.909999,-1.32E-10,,
,8.911999,-1.31E-10,,
,8.913999,-1.30E-10,,
,8.915999,-1.30E-10,,
,8.917999,-1.29E-10,,
,8.919999,-1.29E-10,,
,8.921999,-1.28E-10,,
,8.923999,-1.27E-10,,
,8.925999,-1.27E-10,,
,8.927999,-1.26E-10,,
,8.929999,-1.25E-10,,
,8.931999,-1.23E-10,,
,8.933999,-1.23E-10,,
,8.935999,-1.22E-10,,
,8.937999,-1.21E-10,,
,8.939999,-1.20E-10,,
,8.941999,-1.19E-10,,
,8.943999,-1.17E-10,,
,8.945999,-1.16E-10,,
,8.947999,-1.15E-10,,
,8.949999,-1.14E-10,,
,8.951999,-1.13E-10,,
,8.953999,-1.12E-10,,
,8.955999,-1.11E-10,,
,8.957999,-1.10E-10,,
,8.959999,-1.09E-10,,
,8.961999,-1.07E-10,,
,8.963999,-1.06E-10,,
,8.965999,-1.04E-10,,
,8.967999,-1.04E-10,,
,8.969999,-1.03E-10,,
,8.971999,-1.01E-10,,
,8.973999,-1.00E-10,,
,8.975999,-9.87E-11,,
,8.977999,-9.71E-11,,
,8.979999,-9.54E-11,,
,8.981999,-9.39E-11,,
,8.983999,-9.27E-11,,
,8.985999,-9.15E-11,,
,8.987999,-9.03E-11,,
,8.989999,-8.90E-11,,
,8.991999,-8.77E-11,,
,8.993999,-8.61E-11,,
,8.995999,-8.43E-11,,
,8.997999,-8.25E-11,,
,8.999999,-8.08E-11,,
,9.001999,-7.93E-11,,
,9.003999,-7.82E-11,,
,9.005999,-7.71E-11,,
,9.007999,-7.57E-11,,
,9.009999,-7.40E-11,,
,9.011999,-7.18E-11,,
,9.013999,-7.02E-11,,
,9.015999,-6.84E-11,,
,9.017999,-6.73E-11,,
,9.019999,-6.57E-11,,
,9.021999,-6.42E-11,,
,9.023999,-6.25E-11,,
,9.025999,-6.07E-11,,
,9.027999,-5.90E-11,,
,9.029999,-5.70E-11,,
,9.031999,-5.52E-11,,
,9.033999,-5.35E-11,,
,9.035999,-5.21E-11,,
,9.037999,-5.09E-11,,
,9.039999,-4.96E-11,,
,9.041999,-4.82E-11,,
,9.043999,-4.66E-11,,
,9.045999,-4.53E-11,,
,9.047999,-4.40E-11,,
,9.049999,-4.30E-11,,
,9.051999,-4.20E-11,,
,9.053999,-4.11E-11,,
,9.055999,-4.05E-11,,
,9.057999,-3.96E-11,,
,9.059999,-3.89E-11,,
,9.061999,-3.80E-11,,
,9.063999,-3.73E-11,,
,9.065999,-3.62E-11,,
,9.067999,-3.50E-11,,
,9.069999,-3.33E-11,,
,9.071999,-3.13E-11,,
,9.073999,-2.89E-11,,
,9.075999,-2.66E-11,,
,9.077999,-2.44E-11,,
,9.079999,-2.22E-11,,
,9.081999,-2.02E-11,,
,9.083999,-1.85E-11,,
,9.085999,-1.74E-11,,
,9.087999,-1.69E-11,,
,9.089999,-1.68E-11,,
,9.091999,-1.66E-11,,
,9.093999,-1.63E-11,,
,9.095999,-1.62E-11,,
,9.097999,-1.65E-11,,
,9.099999,-1.73E-11,,
,9.101999,-1.87E-11,,
,9.103999,-2.05E-11,,
,9.105999,-2.20E-11,,
,9.107999,-2.36E-11,,
,9.109999,-2.53E-11,,
,9.111999,-2.70E-11,,
,9.113999,-2.87E-11,,
,9.115999,-3.05E-11,,
,9.117999,-3.29E-11,,
,9.119999,-3.55E-11,,
,9.121999,-3.80E-11,,
,9.123999,-4.06E-11,,
,9.125999,-4.29E-11,,
,9.127999,-4.52E-11,,
,9.129999,-4.76E-11,,
,9.131999,-5.05E-11,,
,9.133999,-5.35E-11,,
,9.135999,-5.68E-11,,
,9.137999,-5.99E-11,,
,9.139999,-6.33E-11,,
,9.141999,-6.63E-11,,
,9.143999,-6.94E-11,,
,9.145999,-7.24E-11,,
,9.147999,-7.56E-11,,
,9.149999,-7.89E-11,,
,9.151999,-8.25E-11,,
,9.153999,-8.61E-11,,
,9.155999,-8.97E-11,,
,9.157999,-9.32E-11,,
,9.159999,-9.68E-11,,
,9.161999,-1.00E-10,,
,9.163999,-1.04E-10,,
,9.165999,-1.07E-10,,
,9.167999,-1.11E-10,,
,9.169999,-1.15E-10,,
,9.171999,-1.19E-10,,
,9.173999,-1.23E-10,,
,9.175999,-1.27E-10,,
,9.177999,-1.30E-10,,
,9.179999,-1.35E-10,,
,9.181999,-1.39E-10,,
,9.183999,-1.44E-10,,
,9.185999,-1.48E-10,,
,9.187999,-1.54E-10,,
,9.189999,-1.59E-10,,
,9.191999,-1.64E-10,,
,9.193999,-1.68E-10,,
,9.195999,-1.73E-10,,
,9.197999,-1.77E-10,,
,9.199999,-1.82E-10,,
,9.201999,-1.86E-10,,
,9.203999,-1.91E-10,,
,9.205999,-1.95E-10,,
,9.207999,-1.99E-10,,
,9.209999,-2.03E-10,,
,9.211999,-2.07E-10,,
,9.213999,-2.10E-10,,
,9.215999,-2.14E-10,,
,9.217999,-2.17E-10,,
,9.219999,-2.21E-10,,
,9.221999,-2.24E-10,,
,9.223999,-2.27E-10,,
,9.225999,-2.29E-10,,
,9.227999,-2.31E-10,,
,9.229999,-2.33E-10,,
,9.231999,-2.35E-10,,
,9.233999,-2.37E-10,,
,9.235999,-2.39E-10,,
,9.237999,-2.40E-10,,
,9.239999,-2.42E-10,,
,9.241999,-2.42E-10,,
,9.243999,-2.43E-10,,
,9.245999,-2.43E-10,,
,9.247999,-2.42E-10,,
,9.249999,-2.42E-10,,
,9.251999,-2.42E-10,,
,9.253999,-2.42E-10,,
,9.255999,-2.41E-10,,
,9.257999,-2.39E-10,,
,9.259999,-2.38E-10,,
,9.261999,-2.36E-10,,
,9.263999,-2.34E-10,,
,9.265999,-2.31E-10,,
,9.267999,-2.29E-10,,
,9.269999,-2.26E-10,,
,9.271999,-2.24E-10,,
,9.273999,-2.21E-10,,
,9.275999,-2.18E-10,,
,9.277999,-2.15E-10,,
,9.279999,-2.12E-10,,
,9.281999,-2.08E-10,,
,9.283999,-2.05E-10,,
,9.285999,-2.02E-10,,
,9.287999,-1.99E-10,,
,9.289999,-1.95E-10,,
,9.291999,-1.92E-10,,
,9.293999,-1.88E-10,,
,9.295999,-1.84E-10,,
,9.297999,-1.80E-10,,
,9.299999,-1.76E-10,,
,9.301999,-1.72E-10,,
,9.303999,-1.68E-10,,
,9.305999,-1.64E-10,,
,9.307999,-1.59E-10,,
,9.309999,-1.55E-10,,
,9.311999,-1.50E-10,,
,9.313999,-1.46E-10,,
,9.315999,-1.41E-10,,
,9.317999,-1.37E-10,,
,9.319999,-1.33E-10,,
,9.321999,-1.30E-10,,
,9.323999,-1.26E-10,,
,9.325999,-1.23E-10,,
,9.327999,-1.19E-10,,
,9.329999,-1.16E-10,,
,9.331999,-1.12E-10,,
,9.333999,-1.09E-10,,
,9.335999,-1.07E-10,,
,9.337999,-1.04E-10,,
,9.339999,-1.01E-10,,
,9.341999,-9.84E-11,,
,9.343999,-9.53E-11,,
,9.345999,-9.22E-11,,
,9.347999,-8.90E-11,,
,9.349999,-8.61E-11,,
,9.351999,-8.33E-11,,
,9.353999,-8.06E-11,,
,9.355999,-7.80E-11,,
,9.357999,-7.52E-11,,
,9.359999,-7.22E-11,,
,9.361999,-6.89E-11,,
,9.363999,-6.58E-11,,
,9.365999,-6.28E-11,,
,9.367999,-5.98E-11,,
,9.369999,-5.70E-11,,
,9.371999,-5.43E-11,,
,9.373999,-5.17E-11,,
,9.375999,-4.87E-11,,
,9.377999,-4.54E-11,,
,9.379999,-4.24E-11,,
,9.381999,-3.92E-11,,
,9.383999,-3.61E-11,,
,9.385999,-3.30E-11,,
,9.387999,-3.00E-11,,
,9.389999,-2.69E-11,,
,9.391999,-2.38E-11,,
,9.393999,-2.02E-11,,
,9.395999,-1.69E-11,,
,9.397999,-1.33E-11,,
,9.399999,-1.04E-11,,
,9.401999,-7.54E-12,,
,9.403999,-4.86E-12,,
,9.405999,-1.96E-12,,
,9.407999,1.05E-12,,
,9.409999,4.27E-12,,
,9.411999,7.49E-12,,
,9.413999,1.10E-11,,
,9.415999,1.44E-11,,
,9.417999,1.76E-11,,
,9.419999,2.05E-11,,
,9.421999,2.36E-11,,
,9.423999,2.68E-11,,
,9.425999,3.07E-11,,
,9.427999,3.49E-11,,
,9.429999,3.96E-11,,
,9.431999,4.43E-11,,
,9.433999,4.91E-11,,
,9.435999,5.39E-11,,
,9.437999,5.87E-11,,
,9.439999,6.36E-11,,
,9.441999,6.90E-11,,
,9.443999,7.49E-11,,
,9.445999,8.15E-11,,
,9.447999,8.82E-11,,
,9.449999,9.50E-11,,
,9.451999,1.01E-10,,
,9.453999,1.08E-10,,
,9.455999,1.14E-10,,
,9.457999,1.20E-10,,
,9.459999,1.26E-10,,
,9.461999,1.33E-10,,
,9.463999,1.39E-10,,
,9.465999,1.45E-10,,
,9.467999,1.50E-10,,
,9.469999,1.55E-10,,
,9.471999,1.60E-10,,
,9.473999,1.64E-10,,
,9.475999,1.68E-10,,
,9.477999,1.72E-10,,
,9.479999,1.76E-10,,
,9.481999,1.79E-10,,
,9.483999,1.81E-10,,
,9.485999,1.84E-10,,
,9.487999,1.86E-10,,
,9.489999,1.87E-10,,
,9.491999,1.89E-10,,
,9.493999,1.90E-10,,
,9.495999,1.92E-10,,
,9.497999,1.93E-10,,
,9.499999,1.94E-10,,
,9.501999,1.94E-10,,
,9.503999,1.94E-10,,
,9.505999,1.94E-10,,
,9.507999,1.94E-10,,
,9.509999,1.94E-10,,
,9.511999,1.94E-10,,
,9.513999,1.94E-10,,
,9.515999,1.93E-10,,
,9.517999,1.93E-10,,
,9.519999,1.92E-10,,
,9.521999,1.91E-10,,
,9.523999,1.90E-10,,
,9.525999,1.89E-10,,
,9.527999,1.88E-10,,
,9.529999,1.87E-10,,
,9.531999,1.86E-10,,
,9.533999,1.85E-10,,
,9.535999,1.84E-10,,
,9.537999,1.82E-10,,
,9.539999,1.81E-10,,
,9.541999,1.79E-10,,
,9.543999,1.78E-10,,
,9.545999,1.76E-10,,
,9.547999,1.75E-10,,
,9.549999,1.73E-10,,
,9.551999,1.72E-10,,
,9.553999,1.70E-10,,
,9.555999,1.68E-10,,
,9.557999,1.66E-10,,
,9.559999,1.64E-10,,
,9.561999,1.63E-10,,
,9.563999,1.61E-10,,
,9.565999,1.60E-10,,
,9.567999,1.58E-10,,
,9.569999,1.56E-10,,
,9.571999,1.53E-10,,
,9.573999,1.51E-10,,
,9.575999,1.50E-10,,
,9.577999,1.48E-10,,
,9.579999,1.47E-10,,
,9.581999,1.45E-10,,
,9.583999,1.43E-10,,
,9.585999,1.41E-10,,
,9.587999,1.38E-10,,
,9.589999,1.36E-10,,
,9.591999,1.35E-10,,
,9.593999,1.33E-10,,
,9.595999,1.31E-10,,
,9.597999,1.29E-10,,
,9.599999,1.27E-10,,
,9.601999,1.25E-10,,
,9.603999,1.23E-10,,
,9.605999,1.21E-10,,
,9.607999,1.18E-10,,
,9.609999,1.16E-10,,
,9.611999,1.15E-10,,
,9.613999,1.13E-10,,
,9.615999,1.11E-10,,
,9.617999,1.08E-10,,
,9.619999,1.06E-10,,
,9.621999,1.03E-10,,
,9.623999,1.01E-10,,
,9.625999,9.87E-11,,
,9.627999,9.68E-11,,
,9.629999,9.44E-11,,
,9.631999,9.23E-11,,
,9.633999,8.99E-11,,
,9.635999,8.78E-11,,
,9.637999,8.54E-11,,
,9.639999,8.32E-11,,
,9.641999,8.12E-11,,
,9.643999,7.96E-11,,
,9.645999,7.79E-11,,
,9.647999,7.61E-11,,
,9.649999,7.41E-11,,
,9.651999,7.21E-11,,
,9.653999,6.99E-11,,
,9.655999,6.78E-11,,
,9.657999,6.61E-11,,
,9.659999,6.47E-11,,
,9.661999,6.35E-11,,
,9.663999,6.21E-11,,
,9.665999,6.06E-11,,
,9.667999,5.88E-11,,
,9.669999,5.70E-11,,
,9.671999,5.54E-11,,
,9.673999,5.41E-11,,
,9.675999,5.28E-11,,
,9.677999,5.17E-11,,
,9.679999,5.09E-11,,
,9.681999,5.02E-11,,
,9.683999,4.90E-11,,
,9.685999,4.76E-11,,
,9.687999,4.61E-11,,
,9.689999,4.48E-11,,
,9.691999,4.39E-11,,
,9.693999,4.30E-11,,
,9.695999,4.27E-11,,
,9.697999,4.22E-11,,
,9.699999,4.16E-11,,
,9.701999,4.07E-11,,
,9.703999,3.97E-11,,
,9.705999,3.87E-11,,
,9.707999,3.81E-11,,
,9.709999,3.78E-11,,
,9.711999,3.75E-11,,
,9.713999,3.72E-11,,
,9.715999,3.66E-11,,
,9.717999,3.60E-11,,
,9.719999,3.53E-11,,
,9.721999,3.47E-11,,
,9.723999,3.40E-11,,
,9.725999,3.39E-11,,
,9.727999,3.37E-11,,
,9.729999,3.38E-11,,
,9.731999,3.35E-11,,
,9.733999,3.30E-11,,
,9.735999,3.24E-11,,
,9.737999,3.19E-11,,
,9.739999,3.15E-11,,
,9.741999,3.11E-11,,
,9.743999,3.11E-11,,
,9.745999,3.11E-11,,
,9.747999,3.09E-11,,
,9.749999,3.04E-11,,
,9.751999,2.97E-11,,
,9.753999,2.91E-11,,
,9.755999,2.85E-11,,
,9.757999,2.79E-11,,
,9.759999,2.77E-11,,
,9.761999,2.75E-11,,
,9.763999,2.75E-11,,
,9.765999,2.71E-11,,
,9.767999,2.66E-11,,
,9.769999,2.60E-11,,
,9.771999,2.55E-11,,
,9.773999,2.51E-11,,
,9.775999,2.49E-11,,
,9.777999,2.46E-11,,
,9.779999,2.45E-11,,
,9.781999,2.41E-11,,
,9.783999,2.38E-11,,
,9.785999,2.28E-11,,
,9.787999,2.21E-11,,
,9.789999,2.13E-11,,
,9.791999,2.13E-11,,
,9.793999,2.12E-11,,
,9.795999,2.12E-11,,
,9.797999,2.12E-11,,
,9.799999,2.11E-11,,
,9.801999,2.07E-11,,
,9.803999,1.98E-11,,
,9.805999,1.92E-11,,
,9.807999,1.89E-11,,
,9.809999,1.88E-11,,
,9.811999,1.91E-11,,
,9.813999,1.93E-11,,
,9.815999,1.95E-11,,
,9.817999,1.92E-11,,
,9.819999,1.89E-11,,
,9.821999,1.87E-11,,
,9.823999,1.84E-11,,
,9.825999,1.82E-11,,
,9.827999,1.83E-11,,
,9.829999,1.82E-11,,
,9.831999,1.83E-11,,
,9.833999,1.80E-11,,
,9.835999,1.80E-11,,
,9.837999,1.77E-11,,
,9.839999,1.77E-11,,
,9.841999,1.77E-11,,
,9.843999,1.79E-11,,
,9.845999,1.80E-11,,
,9.847999,1.85E-11,,
,9.849999,1.87E-11,,
,9.851999,1.84E-11,,
,9.853999,1.77E-11,,
,9.855999,1.75E-11,,
,9.857999,1.75E-11,,
,9.859999,1.78E-11,,
,9.861999,1.80E-11,,
,9.863999,1.83E-11,,
,9.865999,1.84E-11,,
,9.867999,1.81E-11,,
,9.869999,1.77E-11,,
,9.871999,1.73E-11,,
,9.873999,1.73E-11,,
,9.875999,1.74E-11,,
,9.877999,1.78E-11,,
,9.879999,1.82E-11,,
,9.881999,1.85E-11,,
,9.883999,1.84E-11,,
,9.885999,1.82E-11,,
,9.887999,1.78E-11,,
,9.889999,1.74E-11,,
,9.891999,1.72E-11,,
,9.893999,1.70E-11,,
,9.895999,1.72E-11,,
,9.897999,1.74E-11,,
,9.899999,1.74E-11,,
,9.901999,1.70E-11,,
,9.903999,1.65E-11,,
,9.905999,1.61E-11,,
,9.907999,1.61E-11,,
,9.909999,1.63E-11,,
,9.911999,1.66E-11,,
,9.913999,1.66E-11,,
,9.915999,1.62E-11,,
,9.917999,1.58E-11,,
,9.919999,1.51E-11,,
,9.921999,1.47E-11,,
,9.923999,1.44E-11,,
,9.925999,1.40E-11,,
,9.927999,1.39E-11,,
,9.929999,1.38E-11,,
,9.931999,1.38E-11,,
,9.933999,1.37E-11,,
,9.935999,1.32E-11,,
,9.937999,1.26E-11,,
,9.939999,1.21E-11,,
,9.941999,1.21E-11,,
,9.943999,1.21E-11,,
,9.945999,1.20E-11,,
,9.947999,1.17E-11,,
,9.949999,1.16E-11,,
,9.951999,1.10E-11,,
,9.953999,1.06E-11,,
,9.955999,9.96E-12,,
,9.957999,9.64E-12,,
,9.959999,9.31E-12,,
,9.961999,9.31E-12,,
,9.963999,9.42E-12,,
,9.965999,9.42E-12,,
,9.967999,8.99E-12,,
,9.969999,8.35E-12,,
,9.971999,7.49E-12,,
,9.973999,6.85E-12,,
,9.975999,6.42E-12,,
,9.977999,6.31E-12,,
,9.979999,6.42E-12,,
,9.981999,6.31E-12,,
,9.983999,5.56E-12,,
,9.985999,4.70E-12,,
,9.987999,3.73E-12,,
,9.989999,3.30E-12,,
,9.991999,2.77E-12,,
,9.993999,2.44E-12,,
,9.995999,2.01E-12,,
,9.997999,1.69E-12,,
,9.999999,1.16E-12,,
,10.001999,6.19E-13,,
,10.003999,-2.40E-13,,
,10.005999,-9.92E-13,,
,10.007999,-1.85E-12,,
,10.009999,-2.71E-12,,
,10.011999,-3.25E-12,,
,10.013999,-3.68E-12,,
,10.015999,-4.00E-12,,
,10.017999,-4.86E-12,,
,10.019999,-5.72E-12,,
,10.021999,-6.57E-12,,
,10.023999,-7.22E-12,,
,10.025999,-7.86E-12,,
,10.027999,-8.40E-12,,
,10.029999,-8.94E-12,,
,10.031999,-9.37E-12,,
,10.033999,-1.00E-11,,
,10.035999,-1.07E-11,,
,10.037999,-1.18E-11,,
,10.039999,-1.29E-11,,
,10.041999,-1.39E-11,,
,10.043999,-1.43E-11,,
,10.045999,-1.45E-11,,
,10.047999,-1.49E-11,,
,10.049999,-1.56E-11,,
,10.051999,-1.67E-11,,
,10.053999,-1.75E-11,,
,10.055999,-1.83E-11,,
,10.057999,-1.88E-11,,
,10.059999,-1.93E-11,,
,10.061999,-1.99E-11,,
,10.063999,-2.00E-11,,
,10.065999,-2.04E-11,,
,10.067999,-2.11E-11,,
,10.069999,-2.21E-11,,
,10.071999,-2.30E-11,,
,10.073999,-2.34E-11,,
,10.075999,-2.38E-11,,
,10.077999,-2.42E-11,,
,10.079999,-2.45E-11,,
,10.081999,-2.47E-11,,
,10.083999,-2.48E-11,,
,10.085999,-2.56E-11,,
,10.087999,-2.63E-11,,
,10.089999,-2.71E-11,,
,10.091999,-2.74E-11,,
,10.093999,-2.78E-11,,
,10.095999,-2.80E-11,,
,10.097999,-2.82E-11,,
,10.099999,-2.85E-11,,
,10.101999,-2.91E-11,,
,10.103999,-2.99E-11,,
,10.105999,-3.05E-11,,
,10.107999,-3.12E-11,,
,10.109999,-3.17E-11,,
,10.111999,-3.22E-11,,
,10.113999,-3.27E-11,,
,10.115999,-3.36E-11,,
,10.117999,-3.49E-11,,
,10.119999,-3.65E-11,,
,10.121999,-3.84E-11,,
,10.123999,-4.01E-11,,
,10.125999,-4.17E-11,,
,10.127999,-4.32E-11,,
,10.129999,-4.49E-11,,
,10.131999,-4.67E-11,,
,10.133999,-4.84E-11,,
,10.135999,-5.04E-11,,
,10.137999,-5.26E-11,,
,10.139999,-5.50E-11,,
,10.141999,-5.70E-11,,
,10.143999,-5.89E-11,,
,10.145999,-6.06E-11,,
,10.147999,-6.24E-11,,
,10.149999,-6.45E-11,,
,10.151999,-6.67E-11,,
,10.153999,-6.91E-11,,
,10.155999,-7.12E-11,,
,10.157999,-7.33E-11,,
,10.159999,-7.53E-11,,
,10.161999,-7.69E-11,,
,10.163999,-7.83E-11,,
,10.165999,-7.98E-11,,
,10.167999,-8.17E-11,,
,10.169999,-8.39E-11,,
,10.171999,-8.58E-11,,
,10.173999,-8.73E-11,,
,10.175999,-8.86E-11,,
,10.177999,-8.97E-11,,
,10.179999,-9.07E-11,,
,10.181999,-9.19E-11,,
,10.183999,-9.32E-11,,
,10.185999,-9.47E-11,,
,10.187999,-9.63E-11,,
,10.189999,-9.79E-11,,
,10.191999,-9.91E-11,,
,10.193999,-1.00E-10,,
,10.195999,-1.01E-10,,
,10.197999,-1.02E-10,,
,10.199999,-1.03E-10,,
,10.201999,-1.04E-10,,
,10.203999,-1.05E-10,,
,10.205999,-1.06E-10,,
,10.207999,-1.07E-10,,
,10.209999,-1.08E-10,,
,10.211999,-1.08E-10,,
,10.213999,-1.09E-10,,
,10.215999,-1.09E-10,,
,10.217999,-1.10E-10,,
,10.219999,-1.10E-10,,
,10.221999,-1.11E-10,,
,10.223999,-1.12E-10,,
,10.225999,-1.12E-10,,
,10.227999,-1.12E-10,,
,10.229999,-1.12E-10,,
,10.231999,-1.11E-10,,
,10.233999,-1.11E-10,,
,10.235999,-1.11E-10,,
,10.237999,-1.12E-10,,
,10.239999,-1.12E-10,,
,10.241999,-1.12E-10,,
,10.243999,-1.11E-10,,
,10.245999,-1.11E-10,,
,10.247999,-1.10E-10,,
,10.249999,-1.09E-10,,
,10.251999,-1.09E-10,,
,10.253999,-1.09E-10,,
,10.255999,-1.09E-10,,
,10.257999,-1.08E-10,,
,10.259999,-1.08E-10,,
,10.261999,-1.06E-10,,
,10.263999,-1.05E-10,,
,10.265999,-1.04E-10,,
,10.267999,-1.03E-10,,
,10.269999,-1.03E-10,,
,10.271999,-1.02E-10,,
,10.273999,-1.01E-10,,
,10.275999,-9.93E-11,,
,10.277999,-9.76E-11,,
,10.279999,-9.59E-11,,
,10.281999,-9.39E-11,,
,10.283999,-9.21E-11,,
,10.285999,-9.05E-11,,
,10.287999,-8.91E-11,,
,10.289999,-8.75E-11,,
,10.291999,-8.57E-11,,
,10.293999,-8.35E-11,,
,10.295999,-8.11E-11,,
,10.297999,-7.87E-11,,
,10.299999,-7.64E-11,,
,10.301999,-7.46E-11,,
,10.303999,-7.29E-11,,
,10.305999,-7.13E-11,,
,10.307999,-6.94E-11,,
,10.309999,-6.73E-11,,
,10.311999,-6.50E-11,,
,10.313999,-6.28E-11,,
,10.315999,-6.06E-11,,
,10.317999,-5.90E-11,,
,10.319999,-5.72E-11,,
,10.321999,-5.59E-11,,
,10.323999,-5.42E-11,,
,10.325999,-5.24E-11,,
,10.327999,-5.06E-11,,
,10.329999,-4.88E-11,,
,10.331999,-4.70E-11,,
,10.333999,-4.57E-11,,
,10.335999,-4.44E-11,,
,10.337999,-4.34E-11,,
,10.339999,-4.21E-11,,
,10.341999,-4.09E-11,,
,10.343999,-3.93E-11,,
,10.345999,-3.80E-11,,
,10.347999,-3.65E-11,,
,10.349999,-3.56E-11,,
,10.351999,-3.46E-11,,
,10.353999,-3.39E-11,,
,10.355999,-3.31E-11,,
,10.357999,-3.20E-11,,
,10.359999,-3.08E-11,,
,10.361999,-2.97E-11,,
,10.363999,-2.86E-11,,
,10.365999,-2.76E-11,,
,10.367999,-2.71E-11,,
,10.369999,-2.65E-11,,
,10.371999,-2.60E-11,,
,10.373999,-2.54E-11,,
,10.375999,-2.48E-11,,
,10.377999,-2.39E-11,,
,10.379999,-2.27E-11,,
,10.381999,-2.14E-11,,
,10.383999,-2.05E-11,,
,10.385999,-2.00E-11,,
,10.387999,-1.93E-11,,
,10.389999,-1.88E-11,,
,10.391999,-1.77E-11,,
,10.393999,-1.68E-11,,
,10.395999,-1.55E-11,,
,10.397999,-1.44E-11,,
,10.399999,-1.32E-11,,
,10.401999,-1.23E-11,,
,10.403999,-1.16E-11,,
,10.405999,-1.10E-11,,
,10.407999,-1.00E-11,,
,10.409999,-8.61E-12,,
,10.411999,-6.90E-12,,
,10.413999,-5.39E-12,,
,10.415999,-3.68E-12,,
,10.417999,-2.17E-12,,
,10.419999,-6.69E-13,,
,10.421999,7.26E-13,,
,10.423999,2.66E-12,,
,10.425999,5.13E-12,,
,10.427999,8.03E-12,,
,10.429999,1.08E-11,,
,10.431999,1.35E-11,,
,10.433999,1.61E-11,,
,10.435999,1.83E-11,,
,10.437999,2.06E-11,,
,10.439999,2.32E-11,,
,10.441999,2.58E-11,,
,10.443999,2.89E-11,,
,10.445999,3.13E-11,,
,10.447999,3.38E-11,,
,10.449999,3.56E-11,,
,10.451999,3.73E-11,,
,10.453999,3.87E-11,,
,10.455999,4.01E-11,,
,10.457999,4.13E-11,,
,10.459999,4.27E-11,,
,10.461999,4.39E-11,,
,10.463999,4.51E-11,,
,10.465999,4.58E-11,,
,10.467999,4.62E-11,,
,10.469999,4.65E-11,,
,10.471999,4.69E-11,,
,10.473999,4.71E-11,,
,10.475999,4.76E-11,,
,10.477999,4.80E-11,,
,10.479999,4.86E-11,,
,10.481999,4.87E-11,,
,10.483999,4.86E-11,,
,10.485999,4.85E-11,,
,10.487999,4.83E-11,,
,10.489999,4.80E-11,,
,10.491999,4.75E-11,,
,10.493999,4.73E-11,,
,10.495999,4.71E-11,,
,10.497999,4.70E-11,,
,10.499999,4.67E-11,,
,10.501999,4.62E-11,,
,10.503999,4.55E-11,,
,10.505999,4.47E-11,,
,10.507999,4.41E-11,,
,10.509999,4.40E-11,,
,10.511999,4.40E-11,,
,10.513999,4.40E-11,,
,10.515999,4.38E-11,,
,10.517999,4.35E-11,,
,10.519999,4.27E-11,,
,10.521999,4.17E-11,,
,10.523999,4.07E-11,,
,10.525999,4.02E-11,,
,10.527999,3.99E-11,,
,10.529999,3.98E-11,,
,10.531999,3.93E-11,,
,10.533999,3.85E-11,,
,10.535999,3.77E-11,,
,10.537999,3.68E-11,,
,10.539999,3.62E-11,,
,10.541999,3.57E-11,,
,10.543999,3.52E-11,,
,10.545999,3.50E-11,,
,10.547999,3.44E-11,,
,10.549999,3.39E-11,,
,10.551999,3.28E-11,,
,10.553999,3.18E-11,,
,10.555999,3.09E-11,,
,10.557999,3.00E-11,,
,10.559999,2.95E-11,,
,10.561999,2.89E-11,,
,10.563999,2.85E-11,,
,10.565999,2.78E-11,,
,10.567999,2.68E-11,,
,10.569999,2.56E-11,,
,10.571999,2.43E-11,,
,10.573999,2.36E-11,,
,10.575999,2.27E-11,,
,10.577999,2.22E-11,,
,10.579999,2.17E-11,,
,10.581999,2.09E-11,,
,10.583999,2.01E-11,,
,10.585999,1.85E-11,,
,10.587999,1.74E-11,,
,10.589999,1.61E-11,,
,10.591999,1.52E-11,,
,10.593999,1.43E-11,,
,10.595999,1.34E-11,,
,10.597999,1.25E-11,,
,10.599999,1.15E-11,,
,10.601999,1.04E-11,,
,10.603999,8.89E-12,,
,10.605999,7.92E-12,,
,10.607999,6.95E-12,,
,10.609999,6.31E-12,,
,10.611999,5.24E-12,,
,10.613999,4.38E-12,,
,10.615999,3.52E-12,,
,10.617999,2.66E-12,,
,10.619999,1.48E-12,,
,10.621999,2.97E-13,,
,10.623999,-8.84E-13,,
,10.625999,-1.74E-12,,
,10.627999,-2.39E-12,,
,10.629999,-2.82E-12,,
,10.631999,-3.46E-12,,
,10.633999,-4.21E-12,,
,10.635999,-4.96E-12,,
,10.637999,-5.61E-12,,
,10.639999,-6.25E-12,,
,10.641999,-7.00E-12,,
,10.643999,-7.54E-12,,
,10.645999,-7.97E-12,,
,10.647999,-7.86E-12,,
,10.649999,-8.18E-12,,
,10.651999,-8.61E-12,,
,10.653999,-9.47E-12,,
,10.655999,-1.00E-11,,
,10.657999,-1.04E-11,,
,10.659999,-1.05E-11,,
,10.661999,-1.07E-11,,
,10.663999,-1.05E-11,,
,10.665999,-1.07E-11,,
,10.667999,-1.09E-11,,
,10.669999,-1.13E-11,,
,10.671999,-1.19E-11,,
,10.673999,-1.24E-11,,
,10.675999,-1.25E-11,,
,10.677999,-1.22E-11,,
,10.679999,-1.18E-11,,
,10.681999,-1.18E-11,,
,10.683999,-1.23E-11,,
,10.685999,-1.28E-11,,
,10.687999,-1.34E-11,,
,10.689999,-1.36E-11,,
,10.691999,-1.36E-11,,
,10.693999,-1.33E-11,,
,10.695999,-1.34E-11,,
,10.697999,-1.36E-11,,
,10.699999,-1.39E-11,,
,10.701999,-1.41E-11,,
,10.703999,-1.46E-11,,
,10.705999,-1.49E-11,,
,10.707999,-1.53E-11,,
,10.709999,-1.53E-11,,
,10.711999,-1.53E-11,,
,10.713999,-1.52E-11,,
,10.715999,-1.52E-11,,
,10.717999,-1.54E-11,,
,10.719999,-1.59E-11,,
,10.721999,-1.66E-11,,
,10.723999,-1.68E-11,,
,10.725999,-1.70E-11,,
,10.727999,-1.69E-11,,
,10.729999,-1.71E-11,,
,10.731999,-1.73E-11,,
,10.733999,-1.77E-11,,
,10.735999,-1.83E-11,,
,10.737999,-1.88E-11,,
,10.739999,-1.91E-11,,
,10.741999,-1.92E-11,,
,10.743999,-1.93E-11,,
,10.745999,-1.95E-11,,
,10.747999,-1.97E-11,,
,10.749999,-1.97E-11,,
,10.751999,-2.00E-11,,
,10.753999,-2.03E-11,,
,10.755999,-2.06E-11,,
,10.757999,-2.09E-11,,
,10.759999,-2.10E-11,,
,10.761999,-2.10E-11,,
,10.763999,-2.09E-11,,
,10.765999,-2.10E-11,,
,10.767999,-2.13E-11,,
,10.769999,-2.18E-11,,
,10.771999,-2.22E-11,,
,10.773999,-2.24E-11,,
,10.775999,-2.25E-11,,
,10.777999,-2.20E-11,,
,10.779999,-2.19E-11,,
,10.781999,-2.16E-11,,
,10.783999,-2.17E-11,,
,10.785999,-2.16E-11,,
,10.787999,-2.16E-11,,
,10.789999,-2.18E-11,,
,10.791999,-2.18E-11,,
,10.793999,-2.18E-11,,
,10.795999,-2.14E-11,,
,10.797999,-2.12E-11,,
,10.799999,-2.10E-11,,
,10.801999,-2.10E-11,,
,10.803999,-2.11E-11,,
,10.805999,-2.11E-11,,
,10.807999,-2.09E-11,,
,10.809999,-2.06E-11,,
,10.811999,-2.01E-11,,
,10.813999,-1.99E-11,,
,10.815999,-1.96E-11,,
,10.817999,-1.96E-11,,
,10.819999,-1.96E-11,,
,10.821999,-1.96E-11,,
,10.823999,-1.95E-11,,
,10.825999,-1.90E-11,,
,10.827999,-1.86E-11,,
,10.829999,-1.83E-11,,
,10.831999,-1.81E-11,,
,10.833999,-1.80E-11,,
,10.835999,-1.77E-11,,
,10.837999,-1.78E-11,,
,10.839999,-1.77E-11,,
,10.841999,-1.77E-11,,
,10.843999,-1.74E-11,,
,10.845999,-1.71E-11,,
,10.847999,-1.67E-11,,
,10.849999,-1.66E-11,,
,10.851999,-1.67E-11,,
,10.853999,-1.69E-11,,
,10.855999,-1.68E-11,,
,10.857999,-1.66E-11,,
,10.859999,-1.65E-11,,
,10.861999,-1.62E-11,,
,10.863999,-1.61E-11,,
,10.865999,-1.58E-11,,
,10.867999,-1.57E-11,,
,10.869999,-1.57E-11,,
,10.871999,-1.57E-11,,
,10.873999,-1.56E-11,,
,10.875999,-1.53E-11,,
,10.877999,-1.49E-11,,
,10.879999,-1.46E-11,,
,10.881999,-1.44E-11,,
,10.883999,-1.43E-11,,
,10.885999,-1.44E-11,,
,10.887999,-1.45E-11,,
,10.889999,-1.45E-11,,
,10.891999,-1.43E-11,,
,10.893999,-1.40E-11,,
,10.895999,-1.36E-11,,
,10.897999,-1.31E-11,,
,10.899999,-1.28E-11,,
,10.901999,-1.26E-11,,
,10.903999,-1.26E-11,,
,10.905999,-1.27E-11,,
,10.907999,-1.28E-11,,
,10.909999,-1.26E-11,,
,10.911999,-1.23E-11,,
,10.913999,-1.18E-11,,
,10.915999,-1.16E-11,,
,10.917999,-1.14E-11,,
,10.919999,-1.15E-11,,
,10.921999,-1.15E-11,,
,10.923999,-1.15E-11,,
,10.925999,-1.12E-11,,
,10.927999,-1.10E-11,,
,10.929999,-1.07E-11,,
,10.931999,-1.04E-11,,
,10.933999,-1.02E-11,,
,10.935999,-1.04E-11,,
,10.937999,-1.07E-11,,
,10.939999,-1.09E-11,,
,10.941999,-1.08E-11,,
,10.943999,-1.04E-11,,
,10.945999,-1.01E-11,,
,10.947999,-9.79E-12,,
,10.949999,-9.79E-12,,
,10.951999,-9.90E-12,,
,10.953999,-1.01E-11,,
,10.955999,-1.03E-11,,
,10.957999,-1.04E-11,,
,10.959999,-1.02E-11,,
,10.961999,-9.90E-12,,
,10.963999,-9.58E-12,,
,10.965999,-9.58E-12,,
,10.967999,-9.90E-12,,
,10.969999,-1.03E-11,,
,10.971999,-1.07E-11,,
,10.973999,-1.09E-11,,
,10.975999,-1.09E-11,,
,10.977999,-1.09E-11,,
,10.979999,-1.05E-11,,
,10.981999,-1.05E-11,,
,10.983999,-1.07E-11,,
,10.985999,-1.12E-11,,
,10.987999,-1.15E-11,,
,10.989999,-1.16E-11,,
,10.991999,-1.18E-11,,
,10.993999,-1.18E-11,,
,10.995999,-1.18E-11,,
