5/8/2019, 7:38:45 PM ,,,
 Current Sensitivity ,1.00E-09,,,
 This file comes from It only measurement ,0.00E+00,,,
 Sampling rate ,500,,,
 Number of samples per channel ,-1,,,
 No filter from Labview , , , ,
 , ,,,
 ***End_of_Header*** ,,,,
 , Time , Current , Filtered Current , 
,-0.000992,1.08E-11,,
,0.001008,2.16E-11,,
,0.003008,3.26E-11,,
,0.005008,3.34E-11,,
,0.007008,3.43E-11,,
,0.009008,3.50E-11,,
,0.011008,3.52E-11,,
,0.013008,3.47E-11,,
,0.015008,3.41E-11,,
,0.017008,3.37E-11,,
,0.019008,3.38E-11,,
,0.021008,3.44E-11,,
,0.023008,3.54E-11,,
,0.025008,3.67E-11,,
,0.027008,3.73E-11,,
,0.029008,3.73E-11,,
,0.031008,3.69E-11,,
,0.033008,3.67E-11,,
,0.035008,3.67E-11,,
,0.037008,3.73E-11,,
,0.039008,3.84E-11,,
,0.041008,3.97E-11,,
,0.043008,4.06E-11,,
,0.045008,4.08E-11,,
,0.047008,4.06E-11,,
,0.049008,4.01E-11,,
,0.051008,4.02E-11,,
,0.053008,4.07E-11,,
,0.055008,4.16E-11,,
,0.057008,4.29E-11,,
,0.059008,4.37E-11,,
,0.061008,4.41E-11,,
,0.063008,4.38E-11,,
,0.065008,4.35E-11,,
,0.067008,4.33E-11,,
,0.069008,4.35E-11,,
,0.071008,4.43E-11,,
,0.073008,4.53E-11,,
,0.075008,4.65E-11,,
,0.077008,4.70E-11,,
,0.079008,4.66E-11,,
,0.081008,4.59E-11,,
,0.083008,4.56E-11,,
,0.085008,4.57E-11,,
,0.087008,4.60E-11,,
,0.089008,4.67E-11,,
,0.091008,4.76E-11,,
,0.093008,4.83E-11,,
,0.095008,4.82E-11,,
,0.097008,4.75E-11,,
,0.099008,4.68E-11,,
,0.101008,4.64E-11,,
,0.103008,4.66E-11,,
,0.105008,4.71E-11,,
,0.107008,4.79E-11,,
,0.109008,4.82E-11,,
,0.111008,4.81E-11,,
,0.113008,4.77E-11,,
,0.115008,4.71E-11,,
,0.117008,4.67E-11,,
,0.119008,4.64E-11,,
,0.121008,4.67E-11,,
,0.123008,4.75E-11,,
,0.125008,4.81E-11,,
,0.127008,4.83E-11,,
,0.129008,4.77E-11,,
,0.131008,4.71E-11,,
,0.133008,4.62E-11,,
,0.135008,4.57E-11,,
,0.137008,4.58E-11,,
,0.139008,4.65E-11,,
,0.141008,4.73E-11,,
,0.143008,4.77E-11,,
,0.145008,4.75E-11,,
,0.147008,4.67E-11,,
,0.149008,4.58E-11,,
,0.151008,4.55E-11,,
,0.153008,4.55E-11,,
,0.155008,4.60E-11,,
,0.157008,4.66E-11,,
,0.159008,4.69E-11,,
,0.161008,4.68E-11,,
,0.163008,4.61E-11,,
,0.165008,4.55E-11,,
,0.167008,4.47E-11,,
,0.169008,4.44E-11,,
,0.171008,4.47E-11,,
,0.173008,4.53E-11,,
,0.175008,4.58E-11,,
,0.177008,4.60E-11,,
,0.179008,4.56E-11,,
,0.181008,4.48E-11,,
,0.183008,4.42E-11,,
,0.185008,4.38E-11,,
,0.187008,4.38E-11,,
,0.189008,4.40E-11,,
,0.191008,4.46E-11,,
,0.193008,4.48E-11,,
,0.195008,4.44E-11,,
,0.197008,4.36E-11,,
,0.199008,4.28E-11,,
,0.201008,4.23E-11,,
,0.203008,4.21E-11,,
,0.205008,4.25E-11,,
,0.207008,4.30E-11,,
,0.209008,4.35E-11,,
,0.211008,4.30E-11,,
,0.213008,4.23E-11,,
,0.215008,4.12E-11,,
,0.217008,4.07E-11,,
,0.219008,4.04E-11,,
,0.221008,4.08E-11,,
,0.223008,4.13E-11,,
,0.225008,4.17E-11,,
,0.227008,4.17E-11,,
,0.229008,4.10E-11,,
,0.231008,4.01E-11,,
,0.233008,3.94E-11,,
,0.235008,3.88E-11,,
,0.237008,3.88E-11,,
,0.239008,3.92E-11,,
,0.241008,3.97E-11,,
,0.243008,3.98E-11,,
,0.245008,3.94E-11,,
,0.247008,3.84E-11,,
,0.249008,3.73E-11,,
,0.251008,3.66E-11,,
,0.253008,3.66E-11,,
,0.255008,3.68E-11,,
,0.257008,3.72E-11,,
,0.259008,3.74E-11,,
,0.261008,3.71E-11,,
,0.263008,3.64E-11,,
,0.265008,3.54E-11,,
,0.267008,3.48E-11,,
,0.269008,3.44E-11,,
,0.271008,3.45E-11,,
,0.273008,3.49E-11,,
,0.275008,3.53E-11,,
,0.277008,3.52E-11,,
,0.279008,3.47E-11,,
,0.281008,3.36E-11,,
,0.283008,3.27E-11,,
,0.285008,3.23E-11,,
,0.287008,3.23E-11,,
,0.289008,3.28E-11,,
,0.291008,3.33E-11,,
,0.293008,3.35E-11,,
,0.295008,3.31E-11,,
,0.297008,3.25E-11,,
,0.299008,3.19E-11,,
,0.301008,3.13E-11,,
,0.303008,3.13E-11,,
,0.305008,3.20E-11,,
,0.307008,3.28E-11,,
,0.309008,3.33E-11,,
,0.311008,3.30E-11,,
,0.313008,3.24E-11,,
,0.315008,3.18E-11,,
,0.317008,3.13E-11,,
,0.319008,3.12E-11,,
,0.321008,3.15E-11,,
,0.323008,3.22E-11,,
,0.325008,3.28E-11,,
,0.327008,3.30E-11,,
,0.329008,3.27E-11,,
,0.331008,3.19E-11,,
,0.333008,3.12E-11,,
,0.335008,3.08E-11,,
,0.337008,3.12E-11,,
,0.339008,3.20E-11,,
,0.341008,3.29E-11,,
,0.343008,3.34E-11,,
,0.345008,3.34E-11,,
,0.347008,3.27E-11,,
,0.349008,3.22E-11,,
,0.351008,3.16E-11,,
,0.353008,3.18E-11,,
,0.355008,3.24E-11,,
,0.357008,3.34E-11,,
,0.359008,3.41E-11,,
,0.361008,3.41E-11,,
,0.363008,3.36E-11,,
,0.365008,3.29E-11,,
,0.367008,3.24E-11,,
,0.369008,3.25E-11,,
,0.371008,3.28E-11,,
,0.373008,3.37E-11,,
,0.375008,3.45E-11,,
,0.377008,3.48E-11,,
,0.379008,3.42E-11,,
,0.381008,3.31E-11,,
,0.383008,3.28E-11,,
,0.385008,3.28E-11,,
,0.387008,3.33E-11,,
,0.389008,3.39E-11,,
,0.391008,3.48E-11,,
,0.393008,3.52E-11,,
,0.395008,3.50E-11,,
,0.397008,3.42E-11,,
,0.399008,3.35E-11,,
,0.401008,3.31E-11,,
,0.403008,3.35E-11,,
,0.405008,3.43E-11,,
,0.407008,3.52E-11,,
,0.409008,3.57E-11,,
,0.411008,3.56E-11,,
,0.413008,3.51E-11,,
,0.415008,3.41E-11,,
,0.417008,3.36E-11,,
,0.419008,3.35E-11,,
,0.421008,3.40E-11,,
,0.423008,3.45E-11,,
,0.425008,3.51E-11,,
,0.427008,3.53E-11,,
,0.429008,3.50E-11,,
,0.431008,3.42E-11,,
,0.433008,3.34E-11,,
,0.435008,3.31E-11,,
,0.437008,3.34E-11,,
,0.439008,3.41E-11,,
,0.441008,3.49E-11,,
,0.443008,3.51E-11,,
,0.445008,3.47E-11,,
,0.447008,3.37E-11,,
,0.449008,3.29E-11,,
,0.451008,3.25E-11,,
,0.453008,3.25E-11,,
,0.455008,3.27E-11,,
,0.457008,3.33E-11,,
,0.459008,3.38E-11,,
,0.461008,3.40E-11,,
,0.463008,3.37E-11,,
,0.465008,3.29E-11,,
,0.467008,3.24E-11,,
,0.469008,3.22E-11,,
,0.471008,3.26E-11,,
,0.473008,3.31E-11,,
,0.475008,3.37E-11,,
,0.477008,3.38E-11,,
,0.479008,3.33E-11,,
,0.481008,3.24E-11,,
,0.483008,3.16E-11,,
,0.485008,3.15E-11,,
,0.487008,3.20E-11,,
,0.489008,3.24E-11,,
,0.491008,3.28E-11,,
,0.493008,3.29E-11,,
,0.495008,3.29E-11,,
,0.497008,3.26E-11,,
,0.499008,3.19E-11,,
,0.501008,3.13E-11,,
,0.503008,3.12E-11,,
,0.505008,3.18E-11,,
,0.507008,3.23E-11,,
,0.509008,3.27E-11,,
,0.511008,3.27E-11,,
,0.513008,3.24E-11,,
,0.515008,3.16E-11,,
,0.517008,3.11E-11,,
,0.519008,3.09E-11,,
,0.521008,3.12E-11,,
,0.523008,3.19E-11,,
,0.525008,3.24E-11,,
,0.527008,3.27E-11,,
,0.529008,3.23E-11,,
,0.531008,3.18E-11,,
,0.533008,3.12E-11,,
,0.535008,3.10E-11,,
,0.537008,3.12E-11,,
,0.539008,3.18E-11,,
,0.541008,3.25E-11,,
,0.543008,3.28E-11,,
,0.545008,3.25E-11,,
,0.547008,3.16E-11,,
,0.549008,3.08E-11,,
,0.551008,3.06E-11,,
,0.553008,3.07E-11,,
,0.555008,3.14E-11,,
,0.557008,3.21E-11,,
,0.559008,3.27E-11,,
,0.561008,3.26E-11,,
,0.563008,3.21E-11,,
,0.565008,3.14E-11,,
,0.567008,3.10E-11,,
,0.569008,3.08E-11,,
,0.571008,3.11E-11,,
,0.573008,3.19E-11,,
,0.575008,3.27E-11,,
,0.577008,3.31E-11,,
,0.579008,3.28E-11,,
,0.581008,3.20E-11,,
,0.583008,3.12E-11,,
,0.585008,3.11E-11,,
,0.587008,3.18E-11,,
,0.589008,3.24E-11,,
,0.591008,3.30E-11,,
,0.593008,3.34E-11,,
,0.595008,3.33E-11,,
,0.597008,3.25E-11,,
,0.599008,3.14E-11,,
,0.601008,3.09E-11,,
,0.603008,3.10E-11,,
,0.605008,3.18E-11,,
,0.607008,3.25E-11,,
,0.609008,3.29E-11,,
,0.611008,3.28E-11,,
,0.613008,3.23E-11,,
,0.615008,3.15E-11,,
,0.617008,3.12E-11,,
,0.619008,3.13E-11,,
,0.621008,3.16E-11,,
,0.623008,3.19E-11,,
,0.625008,3.23E-11,,
,0.627008,3.26E-11,,
,0.629008,3.24E-11,,
,0.631008,3.16E-11,,
,0.633008,3.09E-11,,
,0.635008,3.07E-11,,
,0.637008,3.09E-11,,
,0.639008,3.14E-11,,
,0.641008,3.21E-11,,
,0.643008,3.23E-11,,
,0.645008,3.21E-11,,
,0.647008,3.14E-11,,
,0.649008,3.08E-11,,
,0.651008,3.06E-11,,
,0.653008,3.06E-11,,
,0.655008,3.11E-11,,
,0.657008,3.16E-11,,
,0.659008,3.24E-11,,
,0.661008,3.24E-11,,
,0.663008,3.21E-11,,
,0.665008,3.12E-11,,
,0.667008,3.08E-11,,
,0.669008,3.07E-11,,
,0.671008,3.11E-11,,
,0.673008,3.20E-11,,
,0.675008,3.28E-11,,
,0.677008,3.34E-11,,
,0.679008,3.29E-11,,
,0.681008,3.22E-11,,
,0.683008,3.13E-11,,
,0.685008,3.13E-11,,
,0.687008,3.16E-11,,
,0.689008,3.25E-11,,
,0.691008,3.31E-11,,
,0.693008,3.35E-11,,
,0.695008,3.31E-11,,
,0.697008,3.23E-11,,
,0.699008,3.16E-11,,
,0.701008,3.13E-11,,
,0.703008,3.16E-11,,
,0.705008,3.19E-11,,
,0.707008,3.24E-11,,
,0.709008,3.27E-11,,
,0.711008,3.29E-11,,
,0.713008,3.24E-11,,
,0.715008,3.18E-11,,
,0.717008,3.10E-11,,
,0.719008,3.10E-11,,
,0.721008,3.12E-11,,
,0.723008,3.16E-11,,
,0.725008,3.22E-11,,
,0.727008,3.22E-11,,
,0.729008,3.21E-11,,
,0.731008,3.13E-11,,
,0.733008,3.09E-11,,
,0.735008,3.08E-11,,
,0.737008,3.08E-11,,
,0.739008,3.12E-11,,
,0.741008,3.16E-11,,
,0.743008,3.20E-11,,
,0.745008,3.16E-11,,
,0.747008,3.08E-11,,
,0.749008,2.98E-11,,
,0.751008,2.92E-11,,
,0.753008,2.92E-11,,
,0.755008,2.95E-11,,
,0.757008,3.04E-11,,
,0.759008,3.09E-11,,
,0.761008,3.11E-11,,
,0.763008,3.05E-11,,
,0.765008,2.95E-11,,
,0.767008,2.90E-11,,
,0.769008,2.86E-11,,
,0.771008,2.90E-11,,
,0.773008,2.95E-11,,
,0.775008,3.02E-11,,
,0.777008,3.06E-11,,
,0.779008,3.00E-11,,
,0.781008,2.92E-11,,
,0.783008,2.83E-11,,
,0.785008,2.82E-11,,
,0.787008,2.85E-11,,
,0.789008,2.92E-11,,
,0.791008,2.96E-11,,
,0.793008,2.96E-11,,
,0.795008,2.93E-11,,
,0.797008,2.87E-11,,
,0.799008,2.82E-11,,
,0.801008,2.79E-11,,
,0.803008,2.82E-11,,
,0.805008,2.90E-11,,
,0.807008,2.97E-11,,
,0.809008,3.01E-11,,
,0.811008,3.00E-11,,
,0.813008,2.94E-11,,
,0.815008,2.83E-11,,
,0.817008,2.79E-11,,
,0.819008,2.81E-11,,
,0.821008,2.87E-11,,
,0.823008,2.94E-11,,
,0.825008,3.00E-11,,
,0.827008,3.02E-11,,
,0.829008,2.97E-11,,
,0.831008,2.89E-11,,
,0.833008,2.80E-11,,
,0.835008,2.78E-11,,
,0.837008,2.80E-11,,
,0.839008,2.90E-11,,
,0.841008,2.97E-11,,
,0.843008,3.01E-11,,
,0.845008,2.99E-11,,
,0.847008,2.93E-11,,
,0.849008,2.86E-11,,
,0.851008,2.82E-11,,
,0.853008,2.84E-11,,
,0.855008,2.90E-11,,
,0.857008,2.98E-11,,
,0.859008,3.05E-11,,
,0.861008,3.07E-11,,
,0.863008,3.02E-11,,
,0.865008,2.97E-11,,
,0.867008,2.96E-11,,
,0.869008,2.99E-11,,
,0.871008,3.06E-11,,
,0.873008,3.13E-11,,
,0.875008,3.21E-11,,
,0.877008,3.26E-11,,
,0.879008,3.26E-11,,
,0.881008,3.22E-11,,
,0.883008,3.19E-11,,
,0.885008,3.18E-11,,
,0.887008,3.23E-11,,
,0.889008,3.31E-11,,
,0.891008,3.43E-11,,
,0.893008,3.52E-11,,
,0.895008,3.52E-11,,
,0.897008,3.49E-11,,
,0.899008,3.45E-11,,
,0.901008,3.49E-11,,
,0.903008,3.54E-11,,
,0.905008,3.63E-11,,
,0.907008,3.72E-11,,
,0.909008,3.80E-11,,
,0.911008,3.83E-11,,
,0.913008,3.81E-11,,
,0.915008,3.79E-11,,
,0.917008,3.77E-11,,
,0.919008,3.83E-11,,
,0.921008,3.91E-11,,
,0.923008,4.02E-11,,
,0.925008,4.09E-11,,
,0.927008,4.13E-11,,
,0.929008,4.13E-11,,
,0.931008,4.09E-11,,
,0.933008,4.06E-11,,
,0.935008,4.07E-11,,
,0.937008,4.14E-11,,
,0.939008,4.24E-11,,
,0.941008,4.35E-11,,
,0.943008,4.41E-11,,
,0.945008,4.42E-11,,
,0.947008,4.38E-11,,
,0.949008,4.31E-11,,
,0.951008,4.31E-11,,
,0.953008,4.35E-11,,
,0.955008,4.44E-11,,
,0.957008,4.53E-11,,
,0.959008,4.59E-11,,
,0.961008,4.59E-11,,
,0.963008,4.52E-11,,
,0.965008,4.44E-11,,
,0.967008,4.40E-11,,
,0.969008,4.42E-11,,
,0.971008,4.47E-11,,
,0.973008,4.55E-11,,
,0.975008,4.61E-11,,
,0.977008,4.62E-11,,
,0.979008,4.57E-11,,
,0.981008,4.48E-11,,
,0.983008,4.41E-11,,
,0.985008,4.39E-11,,
,0.987008,4.42E-11,,
,0.989008,4.50E-11,,
,0.991008,4.56E-11,,
,0.993008,4.58E-11,,
,0.995008,4.56E-11,,
,0.997008,4.50E-11,,
,0.999008,4.43E-11,,
,1.001008,4.40E-11,,
,1.003008,4.44E-11,,
,1.005008,4.53E-11,,
,1.007008,4.60E-11,,
,1.009008,4.64E-11,,
,1.011008,4.60E-11,,
,1.013008,4.55E-11,,
,1.015008,4.47E-11,,
,1.017008,4.43E-11,,
,1.019008,4.41E-11,,
,1.021008,4.44E-11,,
,1.023008,4.50E-11,,
,1.025008,4.57E-11,,
,1.027008,4.59E-11,,
,1.029008,4.55E-11,,
,1.031008,4.45E-11,,
,1.033008,4.39E-11,,
,1.035008,4.36E-11,,
,1.037008,4.37E-11,,
,1.039008,4.41E-11,,
,1.041008,4.50E-11,,
,1.043008,4.53E-11,,
,1.045008,4.51E-11,,
,1.047008,4.41E-11,,
,1.049008,4.33E-11,,
,1.051008,4.30E-11,,
,1.053008,4.35E-11,,
,1.055008,4.42E-11,,
,1.057008,4.47E-11,,
,1.059008,4.51E-11,,
,1.061008,4.50E-11,,
,1.063008,4.44E-11,,
,1.065008,4.36E-11,,
,1.067008,4.29E-11,,
,1.069008,4.28E-11,,
,1.071008,4.32E-11,,
,1.073008,4.39E-11,,
,1.075008,4.45E-11,,
,1.077008,4.45E-11,,
,1.079008,4.39E-11,,
,1.081008,4.29E-11,,
,1.083008,4.22E-11,,
,1.085008,4.21E-11,,
,1.087008,4.23E-11,,
,1.089008,4.26E-11,,
,1.091008,4.29E-11,,
,1.093008,4.29E-11,,
,1.095008,4.26E-11,,
,1.097008,4.18E-11,,
,1.099008,4.11E-11,,
,1.101008,4.06E-11,,
,1.103008,4.04E-11,,
,1.105008,4.09E-11,,
,1.107008,4.16E-11,,
,1.109008,4.21E-11,,
,1.111008,4.20E-11,,
,1.113008,4.11E-11,,
,1.115008,4.02E-11,,
,1.117008,3.95E-11,,
,1.119008,3.93E-11,,
,1.121008,3.95E-11,,
,1.123008,4.00E-11,,
,1.125008,4.04E-11,,
,1.127008,4.03E-11,,
,1.129008,3.96E-11,,
,1.131008,3.88E-11,,
,1.133008,3.81E-11,,
,1.135008,3.79E-11,,
,1.137008,3.79E-11,,
,1.139008,3.85E-11,,
,1.141008,3.92E-11,,
,1.143008,3.95E-11,,
,1.145008,3.93E-11,,
,1.147008,3.84E-11,,
,1.149008,3.77E-11,,
,1.151008,3.70E-11,,
,1.153008,3.71E-11,,
,1.155008,3.77E-11,,
,1.157008,3.83E-11,,
,1.159008,3.85E-11,,
,1.161008,3.83E-11,,
,1.163008,3.75E-11,,
,1.165008,3.68E-11,,
,1.167008,3.63E-11,,
,1.169008,3.64E-11,,
,1.171008,3.66E-11,,
,1.173008,3.71E-11,,
,1.175008,3.74E-11,,
,1.177008,3.75E-11,,
,1.179008,3.69E-11,,
,1.181008,3.59E-11,,
,1.183008,3.52E-11,,
,1.185008,3.50E-11,,
,1.187008,3.53E-11,,
,1.189008,3.58E-11,,
,1.191008,3.65E-11,,
,1.193008,3.66E-11,,
,1.195008,3.64E-11,,
,1.197008,3.54E-11,,
,1.199008,3.47E-11,,
,1.201008,3.40E-11,,
,1.203008,3.40E-11,,
,1.205008,3.44E-11,,
,1.207008,3.51E-11,,
,1.209008,3.56E-11,,
,1.211008,3.56E-11,,
,1.213008,3.49E-11,,
,1.215008,3.40E-11,,
,1.217008,3.34E-11,,
,1.219008,3.35E-11,,
,1.221008,3.38E-11,,
,1.223008,3.43E-11,,
,1.225008,3.51E-11,,
,1.227008,3.52E-11,,
,1.229008,3.47E-11,,
,1.231008,3.37E-11,,
,1.233008,3.31E-11,,
,1.235008,3.28E-11,,
,1.237008,3.29E-11,,
,1.239008,3.34E-11,,
,1.241008,3.43E-11,,
,1.243008,3.50E-11,,
,1.245008,3.47E-11,,
,1.247008,3.40E-11,,
,1.249008,3.31E-11,,
,1.251008,3.31E-11,,
,1.253008,3.35E-11,,
,1.255008,3.40E-11,,
,1.257008,3.47E-11,,
,1.259008,3.51E-11,,
,1.261008,3.53E-11,,
,1.263008,3.49E-11,,
,1.265008,3.41E-11,,
,1.267008,3.38E-11,,
,1.269008,3.38E-11,,
,1.271008,3.43E-11,,
,1.273008,3.53E-11,,
,1.275008,3.62E-11,,
,1.277008,3.66E-11,,
,1.279008,3.62E-11,,
,1.281008,3.56E-11,,
,1.283008,3.52E-11,,
,1.285008,3.51E-11,,
,1.287008,3.55E-11,,
,1.289008,3.63E-11,,
,1.291008,3.73E-11,,
,1.293008,3.79E-11,,
,1.295008,3.79E-11,,
,1.297008,3.73E-11,,
,1.299008,3.67E-11,,
,1.301008,3.64E-11,,
,1.303008,3.64E-11,,
,1.305008,3.73E-11,,
,1.307008,3.81E-11,,
,1.309008,3.89E-11,,
,1.311008,3.88E-11,,
,1.313008,3.83E-11,,
,1.315008,3.72E-11,,
,1.317008,3.65E-11,,
,1.319008,3.66E-11,,
,1.321008,3.73E-11,,
,1.323008,3.81E-11,,
,1.325008,3.85E-11,,
,1.327008,3.84E-11,,
,1.329008,3.79E-11,,
,1.331008,3.72E-11,,
,1.333008,3.67E-11,,
,1.335008,3.65E-11,,
,1.337008,3.66E-11,,
,1.339008,3.71E-11,,
,1.341008,3.80E-11,,
,1.343008,3.85E-11,,
,1.345008,3.83E-11,,
,1.347008,3.74E-11,,
,1.349008,3.66E-11,,
,1.351008,3.59E-11,,
,1.353008,3.63E-11,,
,1.355008,3.68E-11,,
,1.357008,3.77E-11,,
,1.359008,3.81E-11,,
,1.361008,3.80E-11,,
,1.363008,3.73E-11,,
,1.365008,3.62E-11,,
,1.367008,3.54E-11,,
,1.369008,3.54E-11,,
,1.371008,3.59E-11,,
,1.373008,3.68E-11,,
,1.375008,3.72E-11,,
,1.377008,3.73E-11,,
,1.379008,3.67E-11,,
,1.381008,3.57E-11,,
,1.383008,3.50E-11,,
,1.385008,3.49E-11,,
,1.387008,3.54E-11,,
,1.389008,3.59E-11,,
,1.391008,3.65E-11,,
,1.393008,3.65E-11,,
,1.395008,3.62E-11,,
,1.397008,3.54E-11,,
,1.399008,3.47E-11,,
,1.401008,3.42E-11,,
,1.403008,3.42E-11,,
,1.405008,3.47E-11,,
,1.407008,3.54E-11,,
,1.409008,3.58E-11,,
,1.411008,3.58E-11,,
,1.413008,3.48E-11,,
,1.415008,3.37E-11,,
,1.417008,3.30E-11,,
,1.419008,3.33E-11,,
,1.421008,3.38E-11,,
,1.423008,3.43E-11,,
,1.425008,3.48E-11,,
,1.427008,3.48E-11,,
,1.429008,3.43E-11,,
,1.431008,3.37E-11,,
,1.433008,3.31E-11,,
,1.435008,3.28E-11,,
,1.437008,3.31E-11,,
,1.439008,3.38E-11,,
,1.441008,3.47E-11,,
,1.443008,3.50E-11,,
,1.445008,3.48E-11,,
,1.447008,3.39E-11,,
,1.449008,3.29E-11,,
,1.451008,3.25E-11,,
,1.453008,3.24E-11,,
,1.455008,3.29E-11,,
,1.457008,3.31E-11,,
,1.459008,3.37E-11,,
,1.461008,3.36E-11,,
,1.463008,3.30E-11,,
,1.465008,3.21E-11,,
,1.467008,3.12E-11,,
,1.469008,3.11E-11,,
,1.471008,3.15E-11,,
,1.473008,3.22E-11,,
,1.475008,3.26E-11,,
,1.477008,3.25E-11,,
,1.479008,3.20E-11,,
,1.481008,3.10E-11,,
,1.483008,3.01E-11,,
,1.485008,2.99E-11,,
,1.487008,3.01E-11,,
,1.489008,3.09E-11,,
,1.491008,3.15E-11,,
,1.493008,3.20E-11,,
,1.495008,3.15E-11,,
,1.497008,3.07E-11,,
,1.499008,3.00E-11,,
,1.501008,2.97E-11,,
,1.503008,2.97E-11,,
,1.505008,2.99E-11,,
,1.507008,3.07E-11,,
,1.509008,3.13E-11,,
,1.511008,3.14E-11,,
,1.513008,3.09E-11,,
,1.515008,3.00E-11,,
,1.517008,2.96E-11,,
,1.519008,2.94E-11,,
,1.521008,2.99E-11,,
,1.523008,3.06E-11,,
,1.525008,3.12E-11,,
,1.527008,3.12E-11,,
,1.529008,3.06E-11,,
,1.531008,2.99E-11,,
,1.533008,2.95E-11,,
,1.535008,2.96E-11,,
,1.537008,3.00E-11,,
,1.539008,3.08E-11,,
,1.541008,3.14E-11,,
,1.543008,3.19E-11,,
,1.545008,3.16E-11,,
,1.547008,3.11E-11,,
,1.549008,3.02E-11,,
,1.551008,2.98E-11,,
,1.553008,3.00E-11,,
,1.555008,3.09E-11,,
,1.557008,3.16E-11,,
,1.559008,3.21E-11,,
,1.561008,3.19E-11,,
,1.563008,3.13E-11,,
,1.565008,3.08E-11,,
,1.567008,3.04E-11,,
,1.569008,3.05E-11,,
,1.571008,3.09E-11,,
,1.573008,3.16E-11,,
,1.575008,3.23E-11,,
,1.577008,3.24E-11,,
,1.579008,3.22E-11,,
,1.581008,3.15E-11,,
,1.583008,3.10E-11,,
,1.585008,3.07E-11,,
,1.587008,3.10E-11,,
,1.589008,3.16E-11,,
,1.591008,3.23E-11,,
,1.593008,3.23E-11,,
,1.595008,3.21E-11,,
,1.597008,3.13E-11,,
,1.599008,3.08E-11,,
,1.601008,3.04E-11,,
,1.603008,3.06E-11,,
,1.605008,3.11E-11,,
,1.607008,3.19E-11,,
,1.609008,3.23E-11,,
,1.611008,3.21E-11,,
,1.613008,3.12E-11,,
,1.615008,3.07E-11,,
,1.617008,3.07E-11,,
,1.619008,3.09E-11,,
,1.621008,3.12E-11,,
,1.623008,3.18E-11,,
,1.625008,3.26E-11,,
,1.627008,3.31E-11,,
,1.629008,3.29E-11,,
,1.631008,3.20E-11,,
,1.633008,3.13E-11,,
,1.635008,3.14E-11,,
,1.637008,3.22E-11,,
,1.639008,3.29E-11,,
,1.641008,3.37E-11,,
,1.643008,3.44E-11,,
,1.645008,3.44E-11,,
,1.647008,3.41E-11,,
,1.649008,3.35E-11,,
,1.651008,3.36E-11,,
,1.653008,3.41E-11,,
,1.655008,3.50E-11,,
,1.657008,3.57E-11,,
,1.659008,3.63E-11,,
,1.661008,3.64E-11,,
,1.663008,3.58E-11,,
,1.665008,3.50E-11,,
,1.667008,3.47E-11,,
,1.669008,3.50E-11,,
,1.671008,3.59E-11,,
,1.673008,3.69E-11,,
,1.675008,3.79E-11,,
,1.677008,3.81E-11,,
,1.679008,3.79E-11,,
,1.681008,3.73E-11,,
,1.683008,3.70E-11,,
,1.685008,3.70E-11,,
,1.687008,3.75E-11,,
,1.689008,3.84E-11,,
,1.691008,3.95E-11,,
,1.693008,3.99E-11,,
,1.695008,3.99E-11,,
,1.697008,3.92E-11,,
,1.699008,3.86E-11,,
,1.701008,3.84E-11,,
,1.703008,3.87E-11,,
,1.705008,3.96E-11,,
,1.707008,4.08E-11,,
,1.709008,4.17E-11,,
,1.711008,4.18E-11,,
,1.713008,4.13E-11,,
,1.715008,4.08E-11,,
,1.717008,4.04E-11,,
,1.719008,4.06E-11,,
,1.721008,4.13E-11,,
,1.723008,4.25E-11,,
,1.725008,4.35E-11,,
,1.727008,4.38E-11,,
,1.729008,4.35E-11,,
,1.731008,4.27E-11,,
,1.733008,4.21E-11,,
,1.735008,4.20E-11,,
,1.737008,4.28E-11,,
,1.739008,4.40E-11,,
,1.741008,4.51E-11,,
,1.743008,4.55E-11,,
,1.745008,4.54E-11,,
,1.747008,4.47E-11,,
,1.749008,4.40E-11,,
,1.751008,4.38E-11,,
,1.753008,4.41E-11,,
,1.755008,4.51E-11,,
,1.757008,4.61E-11,,
,1.759008,4.70E-11,,
,1.761008,4.72E-11,,
,1.763008,4.68E-11,,
,1.765008,4.65E-11,,
,1.767008,4.62E-11,,
,1.769008,4.64E-11,,
,1.771008,4.70E-11,,
,1.773008,4.82E-11,,
,1.775008,4.93E-11,,
,1.777008,4.98E-11,,
,1.779008,4.97E-11,,
,1.781008,4.94E-11,,
,1.783008,4.90E-11,,
,1.785008,4.90E-11,,
,1.787008,4.95E-11,,
,1.789008,5.02E-11,,
,1.791008,5.13E-11,,
,1.793008,5.19E-11,,
,1.795008,5.19E-11,,
,1.797008,5.10E-11,,
,1.799008,5.02E-11,,
,1.801008,4.99E-11,,
,1.803008,5.01E-11,,
,1.805008,5.09E-11,,
,1.807008,5.16E-11,,
,1.809008,5.25E-11,,
,1.811008,5.25E-11,,
,1.813008,5.20E-11,,
,1.815008,5.11E-11,,
,1.817008,5.04E-11,,
,1.819008,5.00E-11,,
,1.821008,5.04E-11,,
,1.823008,5.12E-11,,
,1.825008,5.20E-11,,
,1.827008,5.19E-11,,
,1.829008,5.10E-11,,
,1.831008,4.99E-11,,
,1.833008,4.90E-11,,
,1.835008,4.88E-11,,
,1.837008,4.90E-11,,
,1.839008,4.96E-11,,
,1.841008,5.00E-11,,
,1.843008,5.00E-11,,
,1.845008,4.95E-11,,
,1.847008,4.85E-11,,
,1.849008,4.74E-11,,
,1.851008,4.70E-11,,
,1.853008,4.70E-11,,
,1.855008,4.74E-11,,
,1.857008,4.76E-11,,
,1.859008,4.81E-11,,
,1.861008,4.77E-11,,
,1.863008,4.69E-11,,
,1.865008,4.55E-11,,
,1.867008,4.46E-11,,
,1.869008,4.44E-11,,
,1.871008,4.47E-11,,
,1.873008,4.52E-11,,
,1.875008,4.57E-11,,
,1.877008,4.58E-11,,
,1.879008,4.54E-11,,
,1.881008,4.44E-11,,
,1.883008,4.33E-11,,
,1.885008,4.28E-11,,
,1.887008,4.28E-11,,
,1.889008,4.33E-11,,
,1.891008,4.37E-11,,
,1.893008,4.39E-11,,
,1.895008,4.36E-11,,
,1.897008,4.29E-11,,
,1.899008,4.21E-11,,
,1.901008,4.14E-11,,
,1.903008,4.13E-11,,
,1.905008,4.18E-11,,
,1.907008,4.27E-11,,
,1.909008,4.35E-11,,
,1.911008,4.33E-11,,
,1.913008,4.25E-11,,
,1.915008,4.15E-11,,
,1.917008,4.10E-11,,
,1.919008,4.11E-11,,
,1.921008,4.16E-11,,
,1.923008,4.25E-11,,
,1.925008,4.32E-11,,
,1.927008,4.32E-11,,
,1.929008,4.26E-11,,
,1.931008,4.16E-11,,
,1.933008,4.12E-11,,
,1.935008,4.12E-11,,
,1.937008,4.15E-11,,
,1.939008,4.22E-11,,
,1.941008,4.26E-11,,
,1.943008,4.29E-11,,
,1.945008,4.26E-11,,
,1.947008,4.20E-11,,
,1.949008,4.13E-11,,
,1.951008,4.10E-11,,
,1.953008,4.10E-11,,
,1.955008,4.15E-11,,
,1.957008,4.21E-11,,
,1.959008,4.24E-11,,
,1.961008,4.22E-11,,
,1.963008,4.14E-11,,
,1.965008,4.06E-11,,
,1.967008,3.96E-11,,
,1.969008,3.93E-11,,
,1.971008,3.96E-11,,
,1.973008,4.03E-11,,
,1.975008,4.07E-11,,
,1.977008,4.08E-11,,
,1.979008,4.02E-11,,
,1.981008,3.95E-11,,
,1.983008,3.84E-11,,
,1.985008,3.77E-11,,
,1.987008,3.77E-11,,
,1.989008,3.81E-11,,
,1.991008,3.88E-11,,
,1.993008,3.91E-11,,
,1.995008,3.86E-11,,
,1.997008,3.77E-11,,
,1.999008,3.68E-11,,
,2.001008,3.64E-11,,
,2.003008,3.64E-11,,
,2.005008,3.67E-11,,
,2.007008,3.73E-11,,
,2.009008,3.78E-11,,
,2.011008,3.77E-11,,
,2.013008,3.68E-11,,
,2.015008,3.58E-11,,
,2.017008,3.53E-11,,
,2.019008,3.55E-11,,
,2.021008,3.59E-11,,
,2.023008,3.68E-11,,
,2.025008,3.72E-11,,
,2.027008,3.74E-11,,
,2.029008,3.67E-11,,
,2.031008,3.58E-11,,
,2.033008,3.52E-11,,
,2.035008,3.51E-11,,
,2.037008,3.55E-11,,
,2.039008,3.60E-11,,
,2.041008,3.69E-11,,
,2.043008,3.72E-11,,
,2.045008,3.70E-11,,
,2.047008,3.62E-11,,
,2.049008,3.54E-11,,
,2.051008,3.51E-11,,
,2.053008,3.52E-11,,
,2.055008,3.55E-11,,
,2.057008,3.60E-11,,
,2.059008,3.63E-11,,
,2.061008,3.63E-11,,
,2.063008,3.56E-11,,
,2.065008,3.49E-11,,
,2.067008,3.42E-11,,
,2.069008,3.40E-11,,
,2.071008,3.44E-11,,
,2.073008,3.49E-11,,
,2.075008,3.55E-11,,
,2.077008,3.56E-11,,
,2.079008,3.53E-11,,
,2.081008,3.44E-11,,
,2.083008,3.36E-11,,
,2.085008,3.31E-11,,
,2.087008,3.34E-11,,
,2.089008,3.38E-11,,
,2.091008,3.44E-11,,
,2.093008,3.43E-11,,
,2.095008,3.38E-11,,
,2.097008,3.30E-11,,
,2.099008,3.25E-11,,
,2.101008,3.23E-11,,
,2.103008,3.22E-11,,
,2.105008,3.25E-11,,
,2.107008,3.31E-11,,
,2.109008,3.36E-11,,
,2.111008,3.34E-11,,
,2.113008,3.25E-11,,
,2.115008,3.16E-11,,
,2.117008,3.12E-11,,
,2.119008,3.11E-11,,
,2.121008,3.15E-11,,
,2.123008,3.20E-11,,
,2.125008,3.24E-11,,
,2.127008,3.21E-11,,
,2.129008,3.15E-11,,
,2.131008,3.06E-11,,
,2.133008,2.97E-11,,
,2.135008,2.96E-11,,
,2.137008,3.02E-11,,
,2.139008,3.09E-11,,
,2.141008,3.12E-11,,
,2.143008,3.11E-11,,
,2.145008,3.09E-11,,
,2.147008,2.99E-11,,
,2.149008,2.90E-11,,
,2.151008,2.83E-11,,
,2.153008,2.84E-11,,
,2.155008,2.90E-11,,
,2.157008,2.95E-11,,
,2.159008,2.99E-11,,
,2.161008,2.96E-11,,
,2.163008,2.90E-11,,
,2.165008,2.79E-11,,
,2.167008,2.74E-11,,
,2.169008,2.74E-11,,
,2.171008,2.80E-11,,
,2.173008,2.87E-11,,
,2.175008,2.92E-11,,
,2.177008,2.93E-11,,
,2.179008,2.87E-11,,
,2.181008,2.80E-11,,
,2.183008,2.72E-11,,
,2.185008,2.71E-11,,
,2.187008,2.76E-11,,
,2.189008,2.82E-11,,
,2.191008,2.89E-11,,
,2.193008,2.93E-11,,
,2.195008,2.90E-11,,
,2.197008,2.80E-11,,
,2.199008,2.71E-11,,
,2.201008,2.68E-11,,
,2.203008,2.72E-11,,
,2.205008,2.78E-11,,
,2.207008,2.87E-11,,
,2.209008,2.93E-11,,
,2.211008,2.93E-11,,
,2.213008,2.84E-11,,
,2.215008,2.77E-11,,
,2.217008,2.70E-11,,
,2.219008,2.72E-11,,
,2.221008,2.76E-11,,
,2.223008,2.83E-11,,
,2.225008,2.89E-11,,
,2.227008,2.90E-11,,
,2.229008,2.83E-11,,
,2.231008,2.74E-11,,
,2.233008,2.66E-11,,
,2.235008,2.65E-11,,
,2.237008,2.65E-11,,
,2.239008,2.71E-11,,
,2.241008,2.76E-11,,
,2.243008,2.78E-11,,
,2.245008,2.71E-11,,
,2.247008,2.61E-11,,
,2.249008,2.50E-11,,
,2.251008,2.41E-11,,
,2.253008,2.42E-11,,
,2.255008,2.46E-11,,
,2.257008,2.51E-11,,
,2.259008,2.50E-11,,
,2.261008,2.46E-11,,
,2.263008,2.37E-11,,
,2.265008,2.27E-11,,
,2.267008,2.21E-11,,
,2.269008,2.19E-11,,
,2.271008,2.21E-11,,
,2.273008,2.24E-11,,
,2.275008,2.25E-11,,
,2.277008,2.23E-11,,
,2.279008,2.14E-11,,
,2.281008,2.02E-11,,
,2.283008,1.92E-11,,
,2.285008,1.89E-11,,
,2.287008,1.92E-11,,
,2.289008,1.95E-11,,
,2.291008,1.98E-11,,
,2.293008,1.98E-11,,
,2.295008,1.95E-11,,
,2.297008,1.85E-11,,
,2.299008,1.75E-11,,
,2.301008,1.67E-11,,
,2.303008,1.66E-11,,
,2.305008,1.69E-11,,
,2.307008,1.73E-11,,
,2.309008,1.75E-11,,
,2.311008,1.73E-11,,
,2.313008,1.65E-11,,
,2.315008,1.54E-11,,
,2.317008,1.47E-11,,
,2.319008,1.46E-11,,
,2.321008,1.51E-11,,
,2.323008,1.55E-11,,
,2.325008,1.61E-11,,
,2.327008,1.59E-11,,
,2.329008,1.54E-11,,
,2.331008,1.45E-11,,
,2.333008,1.39E-11,,
,2.335008,1.37E-11,,
,2.337008,1.39E-11,,
,2.339008,1.45E-11,,
,2.341008,1.53E-11,,
,2.343008,1.60E-11,,
,2.345008,1.59E-11,,
,2.347008,1.54E-11,,
,2.349008,1.50E-11,,
,2.351008,1.50E-11,,
,2.353008,1.53E-11,,
,2.355008,1.60E-11,,
,2.357008,1.68E-11,,
,2.359008,1.76E-11,,
,2.361008,1.77E-11,,
,2.363008,1.74E-11,,
,2.365008,1.67E-11,,
,2.367008,1.65E-11,,
,2.369008,1.66E-11,,
,2.371008,1.73E-11,,
,2.373008,1.84E-11,,
,2.375008,1.95E-11,,
,2.377008,2.01E-11,,
,2.379008,1.96E-11,,
,2.381008,1.90E-11,,
,2.383008,1.87E-11,,
,2.385008,1.89E-11,,
,2.387008,1.95E-11,,
,2.389008,2.02E-11,,
,2.391008,2.11E-11,,
,2.393008,2.14E-11,,
,2.395008,2.14E-11,,
,2.397008,2.08E-11,,
,2.399008,2.05E-11,,
,2.401008,2.06E-11,,
,2.403008,2.11E-11,,
,2.405008,2.22E-11,,
,2.407008,2.33E-11,,
,2.409008,2.41E-11,,
,2.411008,2.46E-11,,
,2.413008,2.42E-11,,
,2.415008,2.37E-11,,
,2.417008,2.35E-11,,
,2.419008,2.38E-11,,
,2.421008,2.43E-11,,
,2.423008,2.50E-11,,
,2.425008,2.56E-11,,
,2.427008,2.64E-11,,
,2.429008,2.62E-11,,
,2.431008,2.56E-11,,
,2.433008,2.49E-11,,
,2.435008,2.49E-11,,
,2.437008,2.55E-11,,
,2.439008,2.65E-11,,
,2.441008,2.74E-11,,
,2.443008,2.76E-11,,
,2.445008,2.74E-11,,
,2.447008,2.69E-11,,
,2.449008,2.66E-11,,
,2.451008,2.65E-11,,
,2.453008,2.69E-11,,
,2.455008,2.79E-11,,
,2.457008,2.89E-11,,
,2.459008,2.94E-11,,
,2.461008,2.92E-11,,
,2.463008,2.86E-11,,
,2.465008,2.79E-11,,
,2.467008,2.77E-11,,
,2.469008,2.80E-11,,
,2.471008,2.90E-11,,
,2.473008,2.99E-11,,
,2.475008,3.08E-11,,
,2.477008,3.13E-11,,
,2.479008,3.13E-11,,
,2.481008,3.09E-11,,
,2.483008,3.02E-11,,
,2.485008,3.01E-11,,
,2.487008,3.06E-11,,
,2.489008,3.13E-11,,
,2.491008,3.20E-11,,
,2.493008,3.23E-11,,
,2.495008,3.21E-11,,
,2.497008,3.14E-11,,
,2.499008,3.08E-11,,
,2.501008,3.05E-11,,
,2.503008,3.07E-11,,
,2.505008,3.12E-11,,
,2.507008,3.20E-11,,
,2.509008,3.26E-11,,
,2.511008,3.25E-11,,
,2.513008,3.20E-11,,
,2.515008,3.11E-11,,
,2.517008,3.06E-11,,
,2.519008,3.01E-11,,
,2.521008,3.04E-11,,
,2.523008,3.10E-11,,
,2.525008,3.15E-11,,
,2.527008,3.14E-11,,
,2.529008,3.08E-11,,
,2.531008,3.02E-11,,
,2.533008,2.97E-11,,
,2.535008,2.98E-11,,
,2.537008,3.02E-11,,
,2.539008,3.12E-11,,
,2.541008,3.19E-11,,
,2.543008,3.22E-11,,
,2.545008,3.19E-11,,
,2.547008,3.11E-11,,
,2.549008,3.01E-11,,
,2.551008,2.96E-11,,
,2.553008,2.98E-11,,
,2.555008,3.06E-11,,
,2.557008,3.13E-11,,
,2.559008,3.18E-11,,
,2.561008,3.15E-11,,
,2.563008,3.08E-11,,
,2.565008,3.00E-11,,
,2.567008,2.96E-11,,
,2.569008,2.98E-11,,
,2.571008,3.04E-11,,
,2.573008,3.12E-11,,
,2.575008,3.18E-11,,
,2.577008,3.18E-11,,
,2.579008,3.14E-11,,
,2.581008,3.08E-11,,
,2.583008,3.04E-11,,
,2.585008,3.01E-11,,
,2.587008,3.08E-11,,
,2.589008,3.15E-11,,
,2.591008,3.25E-11,,
,2.593008,3.27E-11,,
,2.595008,3.24E-11,,
,2.597008,3.15E-11,,
,2.599008,3.11E-11,,
,2.601008,3.11E-11,,
,2.603008,3.13E-11,,
,2.605008,3.19E-11,,
,2.607008,3.26E-11,,
,2.609008,3.33E-11,,
,2.611008,3.34E-11,,
,2.613008,3.26E-11,,
,2.615008,3.18E-11,,
,2.617008,3.13E-11,,
,2.619008,3.15E-11,,
,2.621008,3.22E-11,,
,2.623008,3.28E-11,,
,2.625008,3.34E-11,,
,2.627008,3.37E-11,,
,2.629008,3.34E-11,,
,2.631008,3.28E-11,,
,2.633008,3.22E-11,,
,2.635008,3.19E-11,,
,2.637008,3.21E-11,,
,2.639008,3.27E-11,,
,2.641008,3.35E-11,,
,2.643008,3.37E-11,,
,2.645008,3.34E-11,,
,2.647008,3.27E-11,,
,2.649008,3.23E-11,,
,2.651008,3.21E-11,,
,2.653008,3.24E-11,,
,2.655008,3.30E-11,,
,2.657008,3.38E-11,,
,2.659008,3.43E-11,,
,2.661008,3.41E-11,,
,2.663008,3.33E-11,,
,2.665008,3.23E-11,,
,2.667008,3.19E-11,,
,2.669008,3.23E-11,,
,2.671008,3.28E-11,,
,2.673008,3.37E-11,,
,2.675008,3.43E-11,,
,2.677008,3.48E-11,,
,2.679008,3.42E-11,,
,2.681008,3.34E-11,,
,2.683008,3.25E-11,,
,2.685008,3.25E-11,,
,2.687008,3.29E-11,,
,2.689008,3.38E-11,,
,2.691008,3.44E-11,,
,2.693008,3.47E-11,,
,2.695008,3.44E-11,,
,2.697008,3.36E-11,,
,2.699008,3.28E-11,,
,2.701008,3.22E-11,,
,2.703008,3.25E-11,,
,2.705008,3.34E-11,,
,2.707008,3.42E-11,,
,2.709008,3.45E-11,,
,2.711008,3.42E-11,,
,2.713008,3.36E-11,,
,2.715008,3.29E-11,,
,2.717008,3.25E-11,,
,2.719008,3.27E-11,,
,2.721008,3.33E-11,,
,2.723008,3.40E-11,,
,2.725008,3.44E-11,,
,2.727008,3.43E-11,,
,2.729008,3.38E-11,,
,2.731008,3.29E-11,,
,2.733008,3.24E-11,,
,2.735008,3.23E-11,,
,2.737008,3.26E-11,,
,2.739008,3.34E-11,,
,2.741008,3.40E-11,,
,2.743008,3.45E-11,,
,2.745008,3.41E-11,,
,2.747008,3.35E-11,,
,2.749008,3.27E-11,,
,2.751008,3.28E-11,,
,2.753008,3.28E-11,,
,2.755008,3.35E-11,,
,2.757008,3.41E-11,,
,2.759008,3.49E-11,,
,2.761008,3.49E-11,,
,2.763008,3.42E-11,,
,2.765008,3.35E-11,,
,2.767008,3.31E-11,,
,2.769008,3.31E-11,,
,2.771008,3.37E-11,,
,2.773008,3.44E-11,,
,2.775008,3.50E-11,,
,2.777008,3.51E-11,,
,2.779008,3.47E-11,,
,2.781008,3.40E-11,,
,2.783008,3.35E-11,,
,2.785008,3.35E-11,,
,2.787008,3.39E-11,,
,2.789008,3.47E-11,,
,2.791008,3.53E-11,,
,2.793008,3.57E-11,,
,2.795008,3.54E-11,,
,2.797008,3.45E-11,,
,2.799008,3.39E-11,,
,2.801008,3.38E-11,,
,2.803008,3.42E-11,,
,2.805008,3.51E-11,,
,2.807008,3.60E-11,,
,2.809008,3.67E-11,,
,2.811008,3.68E-11,,
,2.813008,3.63E-11,,
,2.815008,3.56E-11,,
,2.817008,3.55E-11,,
,2.819008,3.57E-11,,
,2.821008,3.64E-11,,
,2.823008,3.66E-11,,
,2.825008,3.71E-11,,
,2.827008,3.72E-11,,
,2.829008,3.72E-11,,
,2.831008,3.69E-11,,
,2.833008,3.67E-11,,
,2.835008,3.69E-11,,
,2.837008,3.73E-11,,
,2.839008,3.83E-11,,
,2.841008,3.91E-11,,
,2.843008,3.96E-11,,
,2.845008,3.91E-11,,
,2.847008,3.83E-11,,
,2.849008,3.75E-11,,
,2.851008,3.78E-11,,
,2.853008,3.82E-11,,
,2.855008,3.89E-11,,
,2.857008,3.96E-11,,
,2.859008,4.01E-11,,
,2.861008,4.00E-11,,
,2.863008,3.95E-11,,
,2.865008,3.86E-11,,
,2.867008,3.82E-11,,
,2.869008,3.81E-11,,
,2.871008,3.85E-11,,
,2.873008,3.94E-11,,
,2.875008,3.96E-11,,
,2.877008,3.94E-11,,
,2.879008,3.85E-11,,
,2.881008,3.78E-11,,
,2.883008,3.72E-11,,
,2.885008,3.68E-11,,
,2.887008,3.70E-11,,
,2.889008,3.74E-11,,
,2.891008,3.81E-11,,
,2.893008,3.83E-11,,
,2.895008,3.80E-11,,
,2.897008,3.71E-11,,
,2.899008,3.64E-11,,
,2.901008,3.58E-11,,
,2.903008,3.59E-11,,
,2.905008,3.63E-11,,
,2.907008,3.68E-11,,
,2.909008,3.72E-11,,
,2.911008,3.70E-11,,
,2.913008,3.64E-11,,
,2.915008,3.53E-11,,
,2.917008,3.48E-11,,
,2.919008,3.44E-11,,
,2.921008,3.50E-11,,
,2.923008,3.55E-11,,
,2.925008,3.60E-11,,
,2.927008,3.58E-11,,
,2.929008,3.51E-11,,
,2.931008,3.42E-11,,
,2.933008,3.35E-11,,
,2.935008,3.31E-11,,
,2.937008,3.31E-11,,
,2.939008,3.36E-11,,
,2.941008,3.40E-11,,
,2.943008,3.40E-11,,
,2.945008,3.34E-11,,
,2.947008,3.23E-11,,
,2.949008,3.14E-11,,
,2.951008,3.11E-11,,
,2.953008,3.12E-11,,
,2.955008,3.15E-11,,
,2.957008,3.18E-11,,
,2.959008,3.21E-11,,
,2.961008,3.20E-11,,
,2.963008,3.12E-11,,
,2.965008,3.02E-11,,
,2.967008,2.95E-11,,
,2.969008,2.96E-11,,
,2.971008,3.00E-11,,
,2.973008,3.09E-11,,
,2.975008,3.13E-11,,
,2.977008,3.14E-11,,
,2.979008,3.06E-11,,
,2.981008,2.96E-11,,
,2.983008,2.89E-11,,
,2.985008,2.87E-11,,
,2.987008,2.93E-11,,
,2.989008,2.99E-11,,
,2.991008,3.08E-11,,
,2.993008,3.11E-11,,
,2.995008,3.07E-11,,
,2.997008,2.99E-11,,
,2.999008,2.93E-11,,
,3.001008,2.90E-11,,
,3.003008,2.93E-11,,
,3.005008,2.97E-11,,
,3.007008,3.06E-11,,
,3.009008,3.08E-11,,
,3.011008,3.06E-11,,
,3.013008,3.01E-11,,
,3.015008,2.96E-11,,
,3.017008,2.94E-11,,
,3.019008,2.92E-11,,
,3.021008,2.96E-11,,
,3.023008,3.02E-11,,
,3.025008,3.10E-11,,
,3.027008,3.09E-11,,
,3.029008,3.02E-11,,
,3.031008,2.94E-11,,
,3.033008,2.87E-11,,
,3.035008,2.85E-11,,
,3.037008,2.87E-11,,
,3.039008,2.96E-11,,
,3.041008,3.05E-11,,
,3.043008,3.07E-11,,
,3.045008,3.01E-11,,
,3.047008,2.92E-11,,
,3.049008,2.84E-11,,
,3.051008,2.81E-11,,
,3.053008,2.85E-11,,
,3.055008,2.92E-11,,
,3.057008,3.00E-11,,
,3.059008,3.01E-11,,
,3.061008,2.99E-11,,
,3.063008,2.95E-11,,
,3.065008,2.89E-11,,
,3.067008,2.87E-11,,
,3.069008,2.86E-11,,
,3.071008,2.92E-11,,
,3.073008,2.97E-11,,
,3.075008,3.01E-11,,
,3.077008,3.02E-11,,
,3.079008,2.96E-11,,
,3.081008,2.89E-11,,
,3.083008,2.85E-11,,
,3.085008,2.84E-11,,
,3.087008,2.87E-11,,
,3.089008,2.90E-11,,
,3.091008,2.94E-11,,
,3.093008,2.93E-11,,
,3.095008,2.87E-11,,
,3.097008,2.80E-11,,
,3.099008,2.70E-11,,
,3.101008,2.64E-11,,
,3.103008,2.58E-11,,
,3.105008,2.63E-11,,
,3.107008,2.65E-11,,
,3.109008,2.68E-11,,
,3.111008,2.61E-11,,
,3.113008,2.52E-11,,
,3.115008,2.40E-11,,
,3.117008,2.35E-11,,
,3.119008,2.32E-11,,
,3.121008,2.34E-11,,
,3.123008,2.35E-11,,
,3.125008,2.34E-11,,
,3.127008,2.28E-11,,
,3.129008,2.20E-11,,
,3.131008,2.10E-11,,
,3.133008,2.03E-11,,
,3.135008,1.98E-11,,
,3.137008,1.98E-11,,
,3.139008,2.02E-11,,
,3.141008,2.05E-11,,
,3.143008,2.07E-11,,
,3.145008,1.98E-11,,
,3.147008,1.88E-11,,
,3.149008,1.76E-11,,
,3.151008,1.73E-11,,
,3.153008,1.73E-11,,
,3.155008,1.77E-11,,
,3.157008,1.82E-11,,
,3.159008,1.83E-11,,
,3.161008,1.79E-11,,
,3.163008,1.70E-11,,
,3.165008,1.62E-11,,
,3.167008,1.56E-11,,
,3.169008,1.56E-11,,
,3.171008,1.61E-11,,
,3.173008,1.67E-11,,
,3.175008,1.68E-11,,
,3.177008,1.69E-11,,
,3.179008,1.65E-11,,
,3.181008,1.62E-11,,
,3.183008,1.55E-11,,
,3.185008,1.56E-11,,
,3.187008,1.62E-11,,
,3.189008,1.72E-11,,
,3.191008,1.81E-11,,
,3.193008,1.85E-11,,
,3.195008,1.85E-11,,
,3.197008,1.78E-11,,
,3.199008,1.73E-11,,
,3.201008,1.72E-11,,
,3.203008,1.75E-11,,
,3.205008,1.83E-11,,
,3.207008,1.94E-11,,
,3.209008,2.02E-11,,
,3.211008,2.03E-11,,
,3.213008,1.96E-11,,
,3.215008,1.92E-11,,
,3.217008,1.91E-11,,
,3.219008,1.93E-11,,
,3.221008,2.01E-11,,
,3.223008,2.07E-11,,
,3.225008,2.16E-11,,
,3.227008,2.17E-11,,
,3.229008,2.16E-11,,
,3.231008,2.08E-11,,
,3.233008,2.05E-11,,
,3.235008,2.06E-11,,
,3.237008,2.13E-11,,
,3.239008,2.23E-11,,
,3.241008,2.31E-11,,
,3.243008,2.35E-11,,
,3.245008,2.35E-11,,
,3.247008,2.31E-11,,
,3.249008,2.27E-11,,
,3.251008,2.24E-11,,
,3.253008,2.28E-11,,
,3.255008,2.37E-11,,
,3.257008,2.48E-11,,
,3.259008,2.52E-11,,
,3.261008,2.51E-11,,
,3.263008,2.47E-11,,
,3.265008,2.42E-11,,
,3.267008,2.41E-11,,
,3.269008,2.43E-11,,
,3.271008,2.50E-11,,
,3.273008,2.60E-11,,
,3.275008,2.69E-11,,
,3.277008,2.75E-11,,
,3.279008,2.71E-11,,
,3.281008,2.66E-11,,
,3.283008,2.62E-11,,
,3.285008,2.62E-11,,
,3.287008,2.65E-11,,
,3.289008,2.72E-11,,
,3.291008,2.80E-11,,
,3.293008,2.82E-11,,
,3.295008,2.80E-11,,
,3.297008,2.75E-11,,
,3.299008,2.70E-11,,
,3.301008,2.68E-11,,
,3.303008,2.72E-11,,
,3.305008,2.80E-11,,
,3.307008,2.89E-11,,
,3.309008,2.93E-11,,
,3.311008,2.93E-11,,
,3.313008,2.86E-11,,
,3.315008,2.79E-11,,
,3.317008,2.76E-11,,
,3.319008,2.77E-11,,
,3.321008,2.80E-11,,
,3.323008,2.84E-11,,
,3.325008,2.91E-11,,
,3.327008,2.93E-11,,
,3.329008,2.86E-11,,
,3.331008,2.77E-11,,
,3.333008,2.71E-11,,
,3.335008,2.71E-11,,
,3.337008,2.77E-11,,
,3.339008,2.84E-11,,
,3.341008,2.93E-11,,
,3.343008,2.95E-11,,
,3.345008,2.91E-11,,
,3.347008,2.82E-11,,
,3.349008,2.76E-11,,
,3.351008,2.75E-11,,
,3.353008,2.78E-11,,
,3.355008,2.83E-11,,
,3.357008,2.90E-11,,
,3.359008,2.95E-11,,
,3.361008,2.93E-11,,
,3.363008,2.85E-11,,
,3.365008,2.76E-11,,
,3.367008,2.71E-11,,
,3.369008,2.70E-11,,
,3.371008,2.76E-11,,
,3.373008,2.81E-11,,
,3.375008,2.85E-11,,
,3.377008,2.83E-11,,
,3.379008,2.77E-11,,
,3.381008,2.70E-11,,
,3.383008,2.65E-11,,
,3.385008,2.65E-11,,
,3.387008,2.66E-11,,
,3.389008,2.70E-11,,
,3.391008,2.76E-11,,
,3.393008,2.77E-11,,
,3.395008,2.75E-11,,
,3.397008,2.66E-11,,
,3.399008,2.60E-11,,
,3.401008,2.55E-11,,
,3.403008,2.60E-11,,
,3.405008,2.66E-11,,
,3.407008,2.72E-11,,
,3.409008,2.76E-11,,
,3.411008,2.75E-11,,
,3.413008,2.69E-11,,
,3.415008,2.63E-11,,
,3.417008,2.60E-11,,
,3.419008,2.60E-11,,
,3.421008,2.62E-11,,
,3.423008,2.67E-11,,
,3.425008,2.71E-11,,
,3.427008,2.72E-11,,
,3.429008,2.68E-11,,
,3.431008,2.63E-11,,
,3.433008,2.56E-11,,
,3.435008,2.54E-11,,
,3.437008,2.57E-11,,
,3.439008,2.67E-11,,
,3.441008,2.75E-11,,
,3.443008,2.77E-11,,
,3.445008,2.71E-11,,
,3.447008,2.62E-11,,
,3.449008,2.53E-11,,
,3.451008,2.48E-11,,
,3.453008,2.49E-11,,
,3.455008,2.54E-11,,
,3.457008,2.61E-11,,
,3.459008,2.63E-11,,
,3.461008,2.56E-11,,
,3.463008,2.48E-11,,
,3.465008,2.37E-11,,
,3.467008,2.32E-11,,
,3.469008,2.31E-11,,
,3.471008,2.35E-11,,
,3.473008,2.39E-11,,
,3.475008,2.41E-11,,
,3.477008,2.39E-11,,
,3.479008,2.35E-11,,
,3.481008,2.26E-11,,
,3.483008,2.20E-11,,
,3.485008,2.16E-11,,
,3.487008,2.16E-11,,
,3.489008,2.18E-11,,
,3.491008,2.20E-11,,
,3.493008,2.21E-11,,
,3.495008,2.16E-11,,
,3.497008,2.06E-11,,
,3.499008,1.96E-11,,
,3.501008,1.90E-11,,
,3.503008,1.90E-11,,
,3.505008,1.94E-11,,
,3.507008,1.99E-11,,
,3.509008,2.02E-11,,
,3.511008,1.95E-11,,
,3.513008,1.87E-11,,
,3.515008,1.76E-11,,
,3.517008,1.72E-11,,
,3.519008,1.69E-11,,
,3.521008,1.73E-11,,
,3.523008,1.75E-11,,
,3.525008,1.80E-11,,
,3.527008,1.79E-11,,
,3.529008,1.72E-11,,
,3.531008,1.59E-11,,
,3.533008,1.49E-11,,
,3.535008,1.45E-11,,
,3.537008,1.48E-11,,
,3.539008,1.51E-11,,
,3.541008,1.56E-11,,
,3.543008,1.55E-11,,
,3.545008,1.51E-11,,
,3.547008,1.41E-11,,
,3.549008,1.32E-11,,
,3.551008,1.29E-11,,
,3.553008,1.31E-11,,
,3.555008,1.38E-11,,
,3.557008,1.43E-11,,
,3.559008,1.47E-11,,
,3.561008,1.43E-11,,
,3.563008,1.36E-11,,
,3.565008,1.28E-11,,
,3.567008,1.25E-11,,
,3.569008,1.28E-11,,
,3.571008,1.34E-11,,
,3.573008,1.41E-11,,
,3.575008,1.49E-11,,
,3.577008,1.48E-11,,
,3.579008,1.44E-11,,
,3.581008,1.37E-11,,
,3.583008,1.34E-11,,
,3.585008,1.34E-11,,
,3.587008,1.39E-11,,
,3.589008,1.50E-11,,
,3.591008,1.59E-11,,
,3.593008,1.63E-11,,
,3.595008,1.61E-11,,
,3.597008,1.58E-11,,
,3.599008,1.55E-11,,
,3.601008,1.56E-11,,
,3.603008,1.62E-11,,
,3.605008,1.70E-11,,
,3.607008,1.80E-11,,
,3.609008,1.88E-11,,
,3.611008,1.88E-11,,
,3.613008,1.83E-11,,
,3.615008,1.77E-11,,
,3.617008,1.76E-11,,
,3.619008,1.80E-11,,
,3.621008,1.88E-11,,
,3.623008,1.98E-11,,
,3.625008,2.06E-11,,
,3.627008,2.10E-11,,
,3.629008,2.05E-11,,
,3.631008,1.98E-11,,
,3.633008,1.93E-11,,
,3.635008,1.96E-11,,
,3.637008,2.04E-11,,
,3.639008,2.13E-11,,
,3.641008,2.19E-11,,
,3.643008,2.20E-11,,
,3.645008,2.17E-11,,
,3.647008,2.11E-11,,
,3.649008,2.06E-11,,
,3.651008,2.04E-11,,
,3.653008,2.07E-11,,
,3.655008,2.13E-11,,
,3.657008,2.20E-11,,
,3.659008,2.23E-11,,
,3.661008,2.20E-11,,
,3.663008,2.12E-11,,
,3.665008,2.05E-11,,
,3.667008,2.02E-11,,
,3.669008,2.05E-11,,
,3.671008,2.10E-11,,
,3.673008,2.19E-11,,
,3.675008,2.24E-11,,
,3.677008,2.26E-11,,
,3.679008,2.21E-11,,
,3.681008,2.14E-11,,
,3.683008,2.07E-11,,
,3.685008,2.08E-11,,
,3.687008,2.12E-11,,
,3.689008,2.23E-11,,
,3.691008,2.31E-11,,
,3.693008,2.33E-11,,
,3.695008,2.27E-11,,
,3.697008,2.19E-11,,
,3.699008,2.12E-11,,
,3.701008,2.10E-11,,
,3.703008,2.12E-11,,
,3.705008,2.19E-11,,
,3.707008,2.24E-11,,
,3.709008,2.27E-11,,
,3.711008,2.25E-11,,
,3.713008,2.20E-11,,
,3.715008,2.12E-11,,
,3.717008,2.08E-11,,
,3.719008,2.08E-11,,
,3.721008,2.12E-11,,
,3.723008,2.17E-11,,
,3.725008,2.20E-11,,
,3.727008,2.19E-11,,
,3.729008,2.13E-11,,
,3.731008,2.06E-11,,
,3.733008,1.99E-11,,
,3.735008,1.97E-11,,
,3.737008,1.99E-11,,
,3.739008,2.04E-11,,
,3.741008,2.09E-11,,
,3.743008,2.08E-11,,
,3.745008,2.03E-11,,
,3.747008,1.90E-11,,
,3.749008,1.83E-11,,
,3.751008,1.82E-11,,
,3.753008,1.88E-11,,
,3.755008,1.94E-11,,
,3.757008,1.98E-11,,
,3.759008,2.01E-11,,
,3.761008,1.94E-11,,
,3.763008,1.84E-11,,
,3.765008,1.74E-11,,
,3.767008,1.72E-11,,
,3.769008,1.74E-11,,
,3.771008,1.81E-11,,
,3.773008,1.90E-11,,
,3.775008,1.98E-11,,
,3.777008,2.01E-11,,
,3.779008,1.96E-11,,
,3.781008,1.88E-11,,
,3.783008,1.83E-11,,
,3.785008,1.81E-11,,
,3.787008,1.85E-11,,
,3.789008,1.92E-11,,
,3.791008,1.98E-11,,
,3.793008,2.02E-11,,
,3.795008,1.97E-11,,
,3.797008,1.90E-11,,
,3.799008,1.82E-11,,
,3.801008,1.79E-11,,
,3.803008,1.83E-11,,
,3.805008,1.92E-11,,
,3.807008,2.01E-11,,
,3.809008,2.04E-11,,
,3.811008,1.99E-11,,
,3.813008,1.94E-11,,
,3.815008,1.88E-11,,
,3.817008,1.83E-11,,
,3.819008,1.81E-11,,
,3.821008,1.85E-11,,
,3.823008,1.94E-11,,
,3.825008,2.04E-11,,
,3.827008,2.07E-11,,
,3.829008,2.02E-11,,
,3.831008,1.93E-11,,
,3.833008,1.87E-11,,
,3.835008,1.87E-11,,
,3.837008,1.92E-11,,
,3.839008,1.99E-11,,
,3.841008,2.07E-11,,
,3.843008,2.09E-11,,
,3.845008,2.07E-11,,
,3.847008,1.99E-11,,
,3.849008,1.92E-11,,
,3.851008,1.89E-11,,
,3.853008,1.91E-11,,
,3.855008,1.98E-11,,
,3.857008,2.06E-11,,
,3.859008,2.11E-11,,
,3.861008,2.09E-11,,
,3.863008,2.01E-11,,
,3.865008,1.91E-11,,
,3.867008,1.85E-11,,
,3.869008,1.88E-11,,
,3.871008,1.95E-11,,
,3.873008,2.04E-11,,
,3.875008,2.11E-11,,
,3.877008,2.12E-11,,
,3.879008,2.07E-11,,
,3.881008,1.97E-11,,
,3.883008,1.94E-11,,
,3.885008,1.95E-11,,
,3.887008,2.02E-11,,
,3.889008,2.09E-11,,
,3.891008,2.17E-11,,
,3.893008,2.22E-11,,
,3.895008,2.19E-11,,
,3.897008,2.14E-11,,
,3.899008,2.08E-11,,
,3.901008,2.07E-11,,
,3.903008,2.11E-11,,
,3.905008,2.19E-11,,
,3.907008,2.29E-11,,
,3.909008,2.35E-11,,
,3.911008,2.36E-11,,
,3.913008,2.31E-11,,
,3.915008,2.26E-11,,
,3.917008,2.24E-11,,
,3.919008,2.27E-11,,
,3.921008,2.33E-11,,
,3.923008,2.40E-11,,
,3.925008,2.48E-11,,
,3.927008,2.50E-11,,
,3.929008,2.48E-11,,
,3.931008,2.37E-11,,
,3.933008,2.33E-11,,
,3.935008,2.35E-11,,
,3.937008,2.46E-11,,
,3.939008,2.55E-11,,
,3.941008,2.63E-11,,
,3.943008,2.69E-11,,
,3.945008,2.71E-11,,
,3.947008,2.69E-11,,
,3.949008,2.64E-11,,
,3.951008,2.62E-11,,
,3.953008,2.65E-11,,
,3.955008,2.72E-11,,
,3.957008,2.83E-11,,
,3.959008,2.93E-11,,
,3.961008,2.97E-11,,
,3.963008,2.95E-11,,
,3.965008,2.91E-11,,
,3.967008,2.90E-11,,
,3.969008,2.94E-11,,
,3.971008,3.01E-11,,
,3.973008,3.10E-11,,
,3.975008,3.16E-11,,
,3.977008,3.19E-11,,
,3.979008,3.18E-11,,
,3.981008,3.13E-11,,
,3.983008,3.11E-11,,
,3.985008,3.12E-11,,
,3.987008,3.18E-11,,
,3.989008,3.24E-11,,
,3.991008,3.30E-11,,
,3.993008,3.33E-11,,
,3.995008,3.31E-11,,
,3.997008,3.25E-11,,
,3.999008,3.19E-11,,
,4.001008,3.18E-11,,
,4.003008,3.19E-11,,
,4.005008,3.26E-11,,
,4.007008,3.30E-11,,
,4.009008,3.34E-11,,
,4.011008,3.31E-11,,
,4.013008,3.24E-11,,
,4.015008,3.16E-11,,
,4.017008,3.10E-11,,
,4.019008,3.10E-11,,
,4.021008,3.13E-11,,
,4.023008,3.19E-11,,
,4.025008,3.23E-11,,
,4.027008,3.24E-11,,
,4.029008,3.19E-11,,
,4.031008,3.12E-11,,
,4.033008,3.07E-11,,
,4.035008,3.08E-11,,
,4.037008,3.10E-11,,
,4.039008,3.15E-11,,
,4.041008,3.20E-11,,
,4.043008,3.22E-11,,
,4.045008,3.16E-11,,
,4.047008,3.07E-11,,
,4.049008,2.98E-11,,
,4.051008,2.97E-11,,
,4.053008,3.00E-11,,
,4.055008,3.08E-11,,
,4.057008,3.13E-11,,
,4.059008,3.18E-11,,
,4.061008,3.16E-11,,
,4.063008,3.13E-11,,
,4.065008,3.07E-11,,
,4.067008,3.02E-11,,
,4.069008,3.01E-11,,
,4.071008,3.08E-11,,
,4.073008,3.13E-11,,
,4.075008,3.18E-11,,
,4.077008,3.16E-11,,
,4.079008,3.12E-11,,
,4.081008,3.07E-11,,
,4.083008,3.01E-11,,
,4.085008,3.02E-11,,
,4.087008,3.04E-11,,
,4.089008,3.09E-11,,
,4.091008,3.14E-11,,
,4.093008,3.19E-11,,
,4.095008,3.16E-11,,
,4.097008,3.08E-11,,
,4.099008,2.98E-11,,
,4.101008,2.92E-11,,
,4.103008,2.92E-11,,
,4.105008,2.96E-11,,
,4.107008,3.02E-11,,
,4.109008,3.06E-11,,
,4.111008,3.05E-11,,
,4.113008,2.99E-11,,
,4.115008,2.93E-11,,
,4.117008,2.91E-11,,
,4.119008,2.90E-11,,
,4.121008,2.93E-11,,
,4.123008,2.98E-11,,
,4.125008,3.07E-11,,
,4.127008,3.08E-11,,
,4.129008,3.01E-11,,
,4.131008,2.90E-11,,
,4.133008,2.82E-11,,
,4.135008,2.79E-11,,
,4.137008,2.82E-11,,
,4.139008,2.87E-11,,
,4.141008,2.92E-11,,
,4.143008,2.94E-11,,
,4.145008,2.86E-11,,
,4.147008,2.81E-11,,
,4.149008,2.72E-11,,
,4.151008,2.72E-11,,
,4.153008,2.72E-11,,
,4.155008,2.78E-11,,
,4.157008,2.84E-11,,
,4.159008,2.87E-11,,
,4.161008,2.83E-11,,
,4.163008,2.74E-11,,
,4.165008,2.63E-11,,
,4.167008,2.57E-11,,
,4.169008,2.58E-11,,
,4.171008,2.63E-11,,
,4.173008,2.67E-11,,
,4.175008,2.70E-11,,
,4.177008,2.70E-11,,
,4.179008,2.63E-11,,
,4.181008,2.53E-11,,
,4.183008,2.46E-11,,
,4.185008,2.46E-11,,
,4.187008,2.48E-11,,
,4.189008,2.53E-11,,
,4.191008,2.60E-11,,
,4.193008,2.60E-11,,
,4.195008,2.54E-11,,
,4.197008,2.43E-11,,
,4.199008,2.36E-11,,
,4.201008,2.31E-11,,
,4.203008,2.31E-11,,
,4.205008,2.36E-11,,
,4.207008,2.45E-11,,
,4.209008,2.49E-11,,
,4.211008,2.45E-11,,
,4.213008,2.36E-11,,
,4.215008,2.26E-11,,
,4.217008,2.24E-11,,
,4.219008,2.26E-11,,
,4.221008,2.35E-11,,
,4.223008,2.41E-11,,
,4.225008,2.45E-11,,
,4.227008,2.40E-11,,
,4.229008,2.36E-11,,
,4.231008,2.27E-11,,
,4.233008,2.24E-11,,
,4.235008,2.20E-11,,
,4.237008,2.24E-11,,
,4.239008,2.31E-11,,
,4.241008,2.38E-11,,
,4.243008,2.41E-11,,
,4.245008,2.38E-11,,
,4.247008,2.32E-11,,
,4.249008,2.25E-11,,
,4.251008,2.23E-11,,
,4.253008,2.26E-11,,
,4.255008,2.34E-11,,
,4.257008,2.40E-11,,
,4.259008,2.43E-11,,
,4.261008,2.40E-11,,
,4.263008,2.37E-11,,
,4.265008,2.31E-11,,
,4.267008,2.29E-11,,
,4.269008,2.31E-11,,
,4.271008,2.37E-11,,
,4.273008,2.46E-11,,
,4.275008,2.51E-11,,
,4.277008,2.51E-11,,
,4.279008,2.42E-11,,
,4.281008,2.34E-11,,
,4.283008,2.28E-11,,
,4.285008,2.28E-11,,
,4.287008,2.33E-11,,
,4.289008,2.38E-11,,
,4.291008,2.43E-11,,
,4.293008,2.46E-11,,
,4.295008,2.41E-11,,
,4.297008,2.34E-11,,
,4.299008,2.24E-11,,
,4.301008,2.21E-11,,
,4.303008,2.23E-11,,
,4.305008,2.28E-11,,
,4.307008,2.36E-11,,
,4.309008,2.38E-11,,
,4.311008,2.36E-11,,
,4.313008,2.27E-11,,
,4.315008,2.20E-11,,
,4.317008,2.18E-11,,
,4.319008,2.20E-11,,
,4.321008,2.27E-11,,
,4.323008,2.36E-11,,
,4.325008,2.42E-11,,
,4.327008,2.42E-11,,
,4.329008,2.34E-11,,
,4.331008,2.26E-11,,
,4.333008,2.21E-11,,
,4.335008,2.22E-11,,
,4.337008,2.26E-11,,
,4.339008,2.34E-11,,
,4.341008,2.42E-11,,
,4.343008,2.46E-11,,
,4.345008,2.43E-11,,
,4.347008,2.37E-11,,
,4.349008,2.33E-11,,
,4.351008,2.32E-11,,
,4.353008,2.37E-11,,
,4.355008,2.45E-11,,
,4.357008,2.52E-11,,
,4.359008,2.56E-11,,
,4.361008,2.55E-11,,
,4.363008,2.50E-11,,
,4.365008,2.45E-11,,
,4.367008,2.46E-11,,
,4.369008,2.50E-11,,
,4.371008,2.60E-11,,
,4.373008,2.66E-11,,
,4.375008,2.75E-11,,
,4.377008,2.75E-11,,
,4.379008,2.70E-11,,
,4.381008,2.66E-11,,
,4.383008,2.62E-11,,
,4.385008,2.64E-11,,
,4.387008,2.66E-11,,
,4.389008,2.74E-11,,
,4.391008,2.80E-11,,
,4.393008,2.83E-11,,
,4.395008,2.80E-11,,
,4.397008,2.72E-11,,
,4.399008,2.66E-11,,
,4.401008,2.64E-11,,
,4.403008,2.68E-11,,
,4.405008,2.76E-11,,
,4.407008,2.84E-11,,
,4.409008,2.86E-11,,
,4.411008,2.83E-11,,
,4.413008,2.76E-11,,
,4.415008,2.69E-11,,
,4.417008,2.66E-11,,
,4.419008,2.66E-11,,
,4.421008,2.71E-11,,
,4.423008,2.77E-11,,
,4.425008,2.80E-11,,
,4.427008,2.78E-11,,
,4.429008,2.70E-11,,
,4.431008,2.63E-11,,
,4.433008,2.60E-11,,
,4.435008,2.62E-11,,
,4.437008,2.66E-11,,
,4.439008,2.70E-11,,
,4.441008,2.74E-11,,
,4.443008,2.74E-11,,
,4.445008,2.70E-11,,
,4.447008,2.64E-11,,
,4.449008,2.56E-11,,
,4.451008,2.53E-11,,
,4.453008,2.55E-11,,
,4.455008,2.63E-11,,
,4.457008,2.67E-11,,
,4.459008,2.69E-11,,
,4.461008,2.66E-11,,
,4.463008,2.60E-11,,
,4.465008,2.52E-11,,
,4.467008,2.50E-11,,
,4.469008,2.51E-11,,
,4.471008,2.57E-11,,
,4.473008,2.65E-11,,
,4.475008,2.70E-11,,
,4.477008,2.69E-11,,
,4.479008,2.63E-11,,
,4.481008,2.56E-11,,
,4.483008,2.54E-11,,
,4.485008,2.53E-11,,
,4.487008,2.56E-11,,
,4.489008,2.60E-11,,
,4.491008,2.65E-11,,
,4.493008,2.66E-11,,
,4.495008,2.63E-11,,
,4.497008,2.55E-11,,
,4.499008,2.51E-11,,
,4.501008,2.48E-11,,
,4.503008,2.49E-11,,
,4.505008,2.54E-11,,
,4.507008,2.61E-11,,
,4.509008,2.65E-11,,
,4.511008,2.61E-11,,
,4.513008,2.52E-11,,
,4.515008,2.46E-11,,
,4.517008,2.40E-11,,
,4.519008,2.39E-11,,
,4.521008,2.42E-11,,
,4.523008,2.50E-11,,
,4.525008,2.56E-11,,
,4.527008,2.56E-11,,
,4.529008,2.48E-11,,
,4.531008,2.40E-11,,
,4.533008,2.34E-11,,
,4.535008,2.34E-11,,
,4.537008,2.38E-11,,
,4.539008,2.43E-11,,
,4.541008,2.50E-11,,
,4.543008,2.49E-11,,
,4.545008,2.43E-11,,
,4.547008,2.33E-11,,
,4.549008,2.25E-11,,
,4.551008,2.23E-11,,
,4.553008,2.27E-11,,
,4.555008,2.34E-11,,
,4.557008,2.39E-11,,
,4.559008,2.40E-11,,
,4.561008,2.37E-11,,
,4.563008,2.28E-11,,
,4.565008,2.21E-11,,
,4.567008,2.16E-11,,
,4.569008,2.17E-11,,
,4.571008,2.22E-11,,
,4.573008,2.29E-11,,
,4.575008,2.35E-11,,
,4.577008,2.35E-11,,
,4.579008,2.29E-11,,
,4.581008,2.21E-11,,
,4.583008,2.13E-11,,
,4.585008,2.14E-11,,
,4.587008,2.21E-11,,
,4.589008,2.31E-11,,
,4.591008,2.35E-11,,
,4.593008,2.35E-11,,
,4.595008,2.29E-11,,
,4.597008,2.23E-11,,
,4.599008,2.19E-11,,
,4.601008,2.17E-11,,
,4.603008,2.19E-11,,
,4.605008,2.23E-11,,
,4.607008,2.33E-11,,
,4.609008,2.37E-11,,
,4.611008,2.37E-11,,
,4.613008,2.28E-11,,
,4.615008,2.23E-11,,
,4.617008,2.19E-11,,
,4.619008,2.21E-11,,
,4.621008,2.27E-11,,
,4.623008,2.34E-11,,
,4.625008,2.41E-11,,
,4.627008,2.37E-11,,
,4.629008,2.35E-11,,
,4.631008,2.26E-11,,
,4.633008,2.25E-11,,
,4.635008,2.24E-11,,
,4.637008,2.28E-11,,
,4.639008,2.35E-11,,
,4.641008,2.40E-11,,
,4.643008,2.42E-11,,
,4.645008,2.41E-11,,
,4.647008,2.35E-11,,
,4.649008,2.29E-11,,
,4.651008,2.25E-11,,
,4.653008,2.28E-11,,
,4.655008,2.34E-11,,
,4.657008,2.40E-11,,
,4.659008,2.43E-11,,
,4.661008,2.40E-11,,
,4.663008,2.29E-11,,
,4.665008,2.20E-11,,
,4.667008,2.17E-11,,
,4.669008,2.22E-11,,
,4.671008,2.28E-11,,
,4.673008,2.34E-11,,
,4.675008,2.36E-11,,
,4.677008,2.35E-11,,
,4.679008,2.32E-11,,
,4.681008,2.25E-11,,
,4.683008,2.21E-11,,
,4.685008,2.17E-11,,
,4.687008,2.19E-11,,
,4.689008,2.25E-11,,
,4.691008,2.31E-11,,
,4.693008,2.29E-11,,
,4.695008,2.21E-11,,
,4.697008,2.11E-11,,
,4.699008,2.06E-11,,
,4.701008,2.02E-11,,
,4.703008,2.03E-11,,
,4.705008,2.05E-11,,
,4.707008,2.08E-11,,
,4.709008,2.10E-11,,
,4.711008,2.03E-11,,
,4.713008,1.94E-11,,
,4.715008,1.82E-11,,
,4.717008,1.78E-11,,
,4.719008,1.76E-11,,
,4.721008,1.77E-11,,
,4.723008,1.80E-11,,
,4.725008,1.81E-11,,
,4.727008,1.77E-11,,
,4.729008,1.68E-11,,
,4.731008,1.59E-11,,
,4.733008,1.51E-11,,
,4.735008,1.48E-11,,
,4.737008,1.49E-11,,
,4.739008,1.54E-11,,
,4.741008,1.56E-11,,
,4.743008,1.53E-11,,
,4.745008,1.46E-11,,
,4.747008,1.35E-11,,
,4.749008,1.25E-11,,
,4.751008,1.19E-11,,
,4.753008,1.17E-11,,
,4.755008,1.22E-11,,
,4.757008,1.26E-11,,
,4.759008,1.29E-11,,
,4.761008,1.21E-11,,
,4.763008,1.08E-11,,
,4.765008,9.53E-12,,
,4.767008,8.67E-12,,
,4.769008,8.56E-12,,
,4.771008,8.89E-12,,
,4.773008,9.31E-12,,
,4.775008,9.53E-12,,
,4.777008,8.99E-12,,
,4.779008,8.24E-12,,
,4.781008,7.06E-12,,
,4.783008,6.42E-12,,
,4.785008,6.09E-12,,
,4.787008,6.31E-12,,
,4.789008,6.74E-12,,
,4.791008,6.95E-12,,
,4.793008,6.63E-12,,
,4.795008,5.66E-12,,
,4.797008,4.59E-12,,
,4.799008,3.95E-12,,
,4.801008,3.73E-12,,
,4.803008,3.95E-12,,
,4.805008,4.38E-12,,
,4.807008,5.02E-12,,
,4.809008,5.34E-12,,
,4.811008,5.13E-12,,
,4.813008,4.48E-12,,
,4.815008,3.95E-12,,
,4.817008,3.73E-12,,
,4.819008,3.84E-12,,
,4.821008,4.16E-12,,
,4.823008,4.81E-12,,
,4.825008,5.34E-12,,
,4.827008,5.45E-12,,
,4.829008,4.91E-12,,
,4.831008,4.38E-12,,
,4.833008,4.27E-12,,
,4.835008,4.70E-12,,
,4.837008,5.56E-12,,
,4.839008,6.85E-12,,
,4.841008,8.03E-12,,
,4.843008,8.78E-12,,
,4.845008,8.89E-12,,
,4.847008,8.89E-12,,
,4.849008,9.21E-12,,
,4.851008,9.74E-12,,
,4.853008,1.08E-11,,
,4.855008,1.22E-11,,
,4.857008,1.38E-11,,
,4.859008,1.52E-11,,
,4.861008,1.56E-11,,
,4.863008,1.61E-11,,
,4.865008,1.61E-11,,
,4.867008,1.67E-11,,
,4.869008,1.76E-11,,
,4.871008,1.90E-11,,
,4.873008,2.10E-11,,
,4.875008,2.27E-11,,
,4.877008,2.39E-11,,
,4.879008,2.42E-11,,
,4.881008,2.43E-11,,
,4.883008,2.49E-11,,
,4.885008,2.58E-11,,
,4.887008,2.72E-11,,
,4.889008,2.90E-11,,
,4.891008,3.06E-11,,
,4.893008,3.18E-11,,
,4.895008,3.22E-11,,
,4.897008,3.23E-11,,
,4.899008,3.25E-11,,
,4.901008,3.35E-11,,
,4.903008,3.47E-11,,
,4.905008,3.62E-11,,
,4.907008,3.73E-11,,
,4.909008,3.86E-11,,
,4.911008,3.93E-11,,
,4.913008,3.97E-11,,
,4.915008,3.97E-11,,
,4.917008,3.99E-11,,
,4.919008,4.06E-11,,
,4.921008,4.17E-11,,
,4.923008,4.33E-11,,
,4.925008,4.46E-11,,
,4.927008,4.51E-11,,
,4.929008,4.48E-11,,
,4.931008,4.45E-11,,
,4.933008,4.46E-11,,
,4.935008,4.53E-11,,
,4.937008,4.62E-11,,
,4.939008,4.77E-11,,
,4.941008,4.89E-11,,
,4.943008,4.95E-11,,
,4.945008,4.93E-11,,
,4.947008,4.85E-11,,
,4.949008,4.82E-11,,
,4.951008,4.81E-11,,
,4.953008,4.88E-11,,
,4.955008,4.97E-11,,
,4.957008,5.06E-11,,
,4.959008,5.12E-11,,
,4.961008,5.13E-11,,
,4.963008,5.06E-11,,
,4.965008,5.01E-11,,
,4.967008,4.97E-11,,
,4.969008,5.00E-11,,
,4.971008,5.04E-11,,
,4.973008,5.12E-11,,
,4.975008,5.18E-11,,
,4.977008,5.19E-11,,
,4.979008,5.15E-11,,
,4.981008,5.08E-11,,
,4.983008,5.03E-11,,
,4.985008,5.03E-11,,
,4.987008,5.06E-11,,
,4.989008,5.14E-11,,
,4.991008,5.23E-11,,
,4.993008,5.26E-11,,
,4.995008,5.21E-11,,
,4.997008,5.12E-11,,
,4.999008,5.04E-11,,
,5.001008,5.02E-11,,
,5.003008,5.04E-11,,
,5.005008,5.11E-11,,
,5.007008,5.18E-11,,
,5.009008,5.21E-11,,
,5.011008,5.19E-11,,
,5.013008,5.10E-11,,
,5.015008,5.03E-11,,
,5.017008,4.99E-11,,
,5.019008,5.02E-11,,
,5.021008,5.08E-11,,
,5.023008,5.16E-11,,
,5.025008,5.19E-11,,
,5.027008,5.18E-11,,
,5.029008,5.11E-11,,
,5.031008,5.03E-11,,
,5.033008,4.98E-11,,
,5.035008,4.98E-11,,
,5.037008,5.04E-11,,
,5.039008,5.13E-11,,
,5.041008,5.20E-11,,
,5.043008,5.23E-11,,
,5.045008,5.15E-11,,
,5.047008,5.09E-11,,
,5.049008,5.05E-11,,
,5.051008,5.10E-11,,
,5.053008,5.15E-11,,
,5.055008,5.20E-11,,
,5.057008,5.29E-11,,
,5.059008,5.33E-11,,
,5.061008,5.34E-11,,
,5.063008,5.29E-11,,
,5.065008,5.27E-11,,
,5.067008,5.27E-11,,
,5.069008,5.30E-11,,
,5.071008,5.37E-11,,
,5.073008,5.44E-11,,
,5.075008,5.53E-11,,
,5.077008,5.53E-11,,
,5.079008,5.48E-11,,
,5.081008,5.42E-11,,
,5.083008,5.38E-11,,
,5.085008,5.40E-11,,
,5.087008,5.45E-11,,
,5.089008,5.57E-11,,
,5.091008,5.66E-11,,
,5.093008,5.70E-11,,
,5.095008,5.66E-11,,
,5.097008,5.59E-11,,
,5.099008,5.52E-11,,
,5.101008,5.50E-11,,
,5.103008,5.55E-11,,
,5.105008,5.66E-11,,
,5.107008,5.74E-11,,
,5.109008,5.78E-11,,
,5.111008,5.77E-11,,
,5.113008,5.74E-11,,
,5.115008,5.68E-11,,
,5.117008,5.62E-11,,
,5.119008,5.62E-11,,
,5.121008,5.69E-11,,
,5.123008,5.78E-11,,
,5.125008,5.86E-11,,
,5.127008,5.89E-11,,
,5.129008,5.84E-11,,
,5.131008,5.75E-11,,
,5.133008,5.68E-11,,
,5.135008,5.68E-11,,
,5.137008,5.74E-11,,
,5.139008,5.82E-11,,
,5.141008,5.89E-11,,
,5.143008,5.90E-11,,
,5.145008,5.87E-11,,
,5.147008,5.81E-11,,
,5.149008,5.76E-11,,
,5.151008,5.75E-11,,
,5.153008,5.78E-11,,
,5.155008,5.85E-11,,
,5.157008,5.93E-11,,
,5.159008,5.97E-11,,
,5.161008,5.94E-11,,
,5.163008,5.86E-11,,
,5.165008,5.78E-11,,
,5.167008,5.74E-11,,
,5.169008,5.77E-11,,
,5.171008,5.85E-11,,
,5.173008,5.92E-11,,
,5.175008,5.98E-11,,
,5.177008,5.99E-11,,
,5.179008,5.94E-11,,
,5.181008,5.89E-11,,
,5.183008,5.86E-11,,
,5.185008,5.86E-11,,
,5.187008,5.92E-11,,
,5.189008,5.99E-11,,
,5.191008,6.11E-11,,
,5.193008,6.14E-11,,
,5.195008,6.13E-11,,
,5.197008,6.04E-11,,
,5.199008,5.99E-11,,
,5.201008,5.98E-11,,
,5.203008,6.02E-11,,
,5.205008,6.11E-11,,
,5.207008,6.18E-11,,
,5.209008,6.21E-11,,
,5.211008,6.16E-11,,
,5.213008,6.10E-11,,
,5.215008,6.02E-11,,
,5.217008,5.99E-11,,
,5.219008,6.00E-11,,
,5.221008,6.06E-11,,
,5.223008,6.14E-11,,
,5.225008,6.18E-11,,
,5.227008,6.16E-11,,
,5.229008,6.08E-11,,
,5.231008,5.99E-11,,
,5.233008,5.93E-11,,
,5.235008,5.93E-11,,
,5.237008,5.96E-11,,
,5.239008,5.99E-11,,
,5.241008,6.01E-11,,
,5.243008,5.99E-11,,
,5.245008,5.93E-11,,
,5.247008,5.85E-11,,
,5.249008,5.77E-11,,
,5.251008,5.73E-11,,
,5.253008,5.72E-11,,
,5.255008,5.77E-11,,
,5.257008,5.81E-11,,
,5.259008,5.82E-11,,
,5.261008,5.76E-11,,
,5.263008,5.68E-11,,
,5.265008,5.59E-11,,
,5.267008,5.53E-11,,
,5.269008,5.52E-11,,
,5.271008,5.53E-11,,
,5.273008,5.58E-11,,
,5.275008,5.61E-11,,
,5.277008,5.61E-11,,
,5.279008,5.52E-11,,
,5.281008,5.44E-11,,
,5.283008,5.35E-11,,
,5.285008,5.37E-11,,
,5.287008,5.37E-11,,
,5.289008,5.44E-11,,
,5.291008,5.49E-11,,
,5.293008,5.52E-11,,
,5.295008,5.47E-11,,
,5.297008,5.37E-11,,
,5.299008,5.29E-11,,
,5.301008,5.23E-11,,
,5.303008,5.23E-11,,
,5.305008,5.28E-11,,
,5.307008,5.37E-11,,
,5.309008,5.42E-11,,
,5.311008,5.38E-11,,
,5.313008,5.29E-11,,
,5.315008,5.20E-11,,
,5.317008,5.18E-11,,
,5.319008,5.17E-11,,
,5.321008,5.24E-11,,
,5.323008,5.30E-11,,
,5.325008,5.34E-11,,
,5.327008,5.32E-11,,
,5.329008,5.24E-11,,
,5.331008,5.15E-11,,
,5.333008,5.08E-11,,
,5.335008,5.08E-11,,
,5.337008,5.13E-11,,
,5.339008,5.19E-11,,
,5.341008,5.25E-11,,
,5.343008,5.25E-11,,
,5.345008,5.19E-11,,
,5.347008,5.11E-11,,
,5.349008,5.03E-11,,
,5.351008,5.01E-11,,
,5.353008,5.02E-11,,
,5.355008,5.08E-11,,
,5.357008,5.13E-11,,
,5.359008,5.13E-11,,
,5.361008,5.09E-11,,
,5.363008,4.98E-11,,
,5.365008,4.90E-11,,
,5.367008,4.84E-11,,
,5.369008,4.87E-11,,
,5.371008,4.93E-11,,
,5.373008,5.00E-11,,
,5.375008,5.02E-11,,
,5.377008,4.97E-11,,
,5.379008,4.87E-11,,
,5.381008,4.75E-11,,
,5.383008,4.66E-11,,
,5.385008,4.62E-11,,
,5.387008,4.62E-11,,
,5.389008,4.71E-11,,
,5.391008,4.76E-11,,
,5.393008,4.80E-11,,
,5.395008,4.70E-11,,
,5.397008,4.58E-11,,
,5.399008,4.46E-11,,
,5.401008,4.43E-11,,
,5.403008,4.44E-11,,
,5.405008,4.48E-11,,
,5.407008,4.51E-11,,
,5.409008,4.48E-11,,
,5.411008,4.42E-11,,
,5.413008,4.32E-11,,
,5.415008,4.22E-11,,
,5.417008,4.15E-11,,
,5.419008,4.14E-11,,
,5.421008,4.17E-11,,
,5.423008,4.18E-11,,
,5.425008,4.18E-11,,
,5.427008,4.12E-11,,
,5.429008,4.03E-11,,
,5.431008,3.92E-11,,
,5.433008,3.85E-11,,
,5.435008,3.82E-11,,
,5.437008,3.84E-11,,
,5.439008,3.87E-11,,
,5.441008,3.89E-11,,
,5.443008,3.88E-11,,
,5.445008,3.83E-11,,
,5.447008,3.73E-11,,
,5.449008,3.65E-11,,
,5.451008,3.62E-11,,
,5.453008,3.63E-11,,
,5.455008,3.66E-11,,
,5.457008,3.68E-11,,
,5.459008,3.70E-11,,
,5.461008,3.66E-11,,
,5.463008,3.56E-11,,
,5.465008,3.45E-11,,
,5.467008,3.39E-11,,
,5.469008,3.40E-11,,
,5.471008,3.45E-11,,
,5.473008,3.53E-11,,
,5.475008,3.57E-11,,
,5.477008,3.55E-11,,
,5.479008,3.48E-11,,
,5.481008,3.39E-11,,
,5.483008,3.35E-11,,
,5.485008,3.34E-11,,
,5.487008,3.37E-11,,
,5.489008,3.40E-11,,
,5.491008,3.44E-11,,
,5.493008,3.42E-11,,
,5.495008,3.38E-11,,
,5.497008,3.28E-11,,
,5.499008,3.22E-11,,
,5.501008,3.19E-11,,
,5.503008,3.21E-11,,
,5.505008,3.24E-11,,
,5.507008,3.27E-11,,
,5.509008,3.28E-11,,
,5.511008,3.25E-11,,
,5.513008,3.19E-11,,
,5.515008,3.11E-11,,
,5.517008,3.07E-11,,
,5.519008,3.07E-11,,
,5.521008,3.10E-11,,
,5.523008,3.15E-11,,
,5.525008,3.18E-11,,
,5.527008,3.15E-11,,
,5.529008,3.09E-11,,
,5.531008,3.01E-11,,
,5.533008,2.96E-11,,
,5.535008,2.96E-11,,
,5.537008,3.00E-11,,
,5.539008,3.09E-11,,
,5.541008,3.12E-11,,
,5.543008,3.12E-11,,
,5.545008,3.05E-11,,
,5.547008,2.97E-11,,
,5.549008,2.90E-11,,
,5.551008,2.90E-11,,
,5.553008,2.92E-11,,
,5.555008,2.98E-11,,
,5.557008,3.04E-11,,
,5.559008,3.07E-11,,
,5.561008,3.06E-11,,
,5.563008,2.98E-11,,
,5.565008,2.93E-11,,
,5.567008,2.86E-11,,
,5.569008,2.86E-11,,
,5.571008,2.90E-11,,
,5.573008,2.96E-11,,
,5.575008,2.98E-11,,
,5.577008,2.95E-11,,
,5.579008,2.87E-11,,
,5.581008,2.80E-11,,
,5.583008,2.76E-11,,
,5.585008,2.76E-11,,
,5.587008,2.81E-11,,
,5.589008,2.87E-11,,
,5.591008,2.92E-11,,
,5.593008,2.92E-11,,
,5.595008,2.84E-11,,
,5.597008,2.77E-11,,
,5.599008,2.69E-11,,
,5.601008,2.68E-11,,
,5.603008,2.70E-11,,
,5.605008,2.77E-11,,
,5.607008,2.83E-11,,
,5.609008,2.86E-11,,
,5.611008,2.83E-11,,
,5.613008,2.75E-11,,
,5.615008,2.68E-11,,
,5.617008,2.63E-11,,
,5.619008,2.65E-11,,
,5.621008,2.70E-11,,
,5.623008,2.78E-11,,
,5.625008,2.83E-11,,
,5.627008,2.81E-11,,
,5.629008,2.76E-11,,
,5.631008,2.65E-11,,
,5.633008,2.58E-11,,
,5.635008,2.57E-11,,
,5.637008,2.64E-11,,
,5.639008,2.70E-11,,
,5.641008,2.76E-11,,
,5.643008,2.76E-11,,
,5.645008,2.71E-11,,
,5.647008,2.64E-11,,
,5.649008,2.57E-11,,
,5.651008,2.56E-11,,
,5.653008,2.61E-11,,
,5.655008,2.66E-11,,
,5.657008,2.72E-11,,
,5.659008,2.72E-11,,
,5.661008,2.69E-11,,
,5.663008,2.61E-11,,
,5.665008,2.54E-11,,
,5.667008,2.53E-11,,
,5.669008,2.55E-11,,
,5.671008,2.63E-11,,
,5.673008,2.69E-11,,
,5.675008,2.75E-11,,
,5.677008,2.72E-11,,
,5.679008,2.67E-11,,
,5.681008,2.58E-11,,
,5.683008,2.54E-11,,
,5.685008,2.55E-11,,
,5.687008,2.62E-11,,
,5.689008,2.69E-11,,
,5.691008,2.75E-11,,
,5.693008,2.76E-11,,
,5.695008,2.70E-11,,
,5.697008,2.60E-11,,
,5.699008,2.54E-11,,
,5.701008,2.53E-11,,
,5.703008,2.60E-11,,
,5.705008,2.66E-11,,
,5.707008,2.72E-11,,
,5.709008,2.76E-11,,
,5.711008,2.74E-11,,
,5.713008,2.68E-11,,
,5.715008,2.63E-11,,
,5.717008,2.60E-11,,
,5.719008,2.64E-11,,
,5.721008,2.69E-11,,
,5.723008,2.78E-11,,
,5.725008,2.81E-11,,
,5.727008,2.81E-11,,
,5.729008,2.76E-11,,
,5.731008,2.68E-11,,
,5.733008,2.64E-11,,
,5.735008,2.65E-11,,
,5.737008,2.71E-11,,
,5.739008,2.81E-11,,
,5.741008,2.87E-11,,
,5.743008,2.89E-11,,
,5.745008,2.83E-11,,
,5.747008,2.77E-11,,
,5.749008,2.74E-11,,
,5.751008,2.71E-11,,
,5.753008,2.75E-11,,
,5.755008,2.82E-11,,
,5.757008,2.92E-11,,
,5.759008,2.96E-11,,
,5.761008,2.93E-11,,
,5.763008,2.85E-11,,
,5.765008,2.79E-11,,
,5.767008,2.76E-11,,
,5.769008,2.79E-11,,
,5.771008,2.84E-11,,
,5.773008,2.92E-11,,
,5.775008,2.96E-11,,
,5.777008,2.97E-11,,
,5.779008,2.90E-11,,
,5.781008,2.80E-11,,
,5.783008,2.71E-11,,
,5.785008,2.71E-11,,
,5.787008,2.78E-11,,
,5.789008,2.87E-11,,
,5.791008,2.94E-11,,
,5.793008,2.94E-11,,
,5.795008,2.85E-11,,
,5.797008,2.78E-11,,
,5.799008,2.72E-11,,
,5.801008,2.75E-11,,
,5.803008,2.77E-11,,
,5.805008,2.83E-11,,
,5.807008,2.89E-11,,
,5.809008,2.93E-11,,
,5.811008,2.91E-11,,
,5.813008,2.84E-11,,
,5.815008,2.79E-11,,
,5.817008,2.75E-11,,
,5.819008,2.78E-11,,
,5.821008,2.82E-11,,
,5.823008,2.87E-11,,
,5.825008,2.91E-11,,
,5.827008,2.89E-11,,
,5.829008,2.81E-11,,
,5.831008,2.72E-11,,
,5.833008,2.66E-11,,
,5.835008,2.67E-11,,
,5.837008,2.72E-11,,
,5.839008,2.81E-11,,
,5.841008,2.86E-11,,
,5.843008,2.84E-11,,
,5.845008,2.78E-11,,
,5.847008,2.70E-11,,
,5.849008,2.64E-11,,
,5.851008,2.62E-11,,
,5.853008,2.62E-11,,
,5.855008,2.68E-11,,
,5.857008,2.74E-11,,
,5.859008,2.77E-11,,
,5.861008,2.72E-11,,
,5.863008,2.64E-11,,
,5.865008,2.57E-11,,
,5.867008,2.55E-11,,
,5.869008,2.58E-11,,
,5.871008,2.64E-11,,
,5.873008,2.69E-11,,
,5.875008,2.71E-11,,
,5.877008,2.70E-11,,
,5.879008,2.63E-11,,
,5.881008,2.56E-11,,
,5.883008,2.50E-11,,
,5.885008,2.49E-11,,
,5.887008,2.53E-11,,
,5.889008,2.61E-11,,
,5.891008,2.67E-11,,
,5.893008,2.67E-11,,
,5.895008,2.62E-11,,
,5.897008,2.52E-11,,
,5.899008,2.48E-11,,
,5.901008,2.47E-11,,
,5.903008,2.52E-11,,
,5.905008,2.56E-11,,
,5.907008,2.61E-11,,
,5.909008,2.61E-11,,
,5.911008,2.53E-11,,
,5.913008,2.47E-11,,
,5.915008,2.38E-11,,
,5.917008,2.37E-11,,
,5.919008,2.36E-11,,
,5.921008,2.42E-11,,
,5.923008,2.48E-11,,
,5.925008,2.50E-11,,
,5.927008,2.46E-11,,
,5.929008,2.36E-11,,
,5.931008,2.24E-11,,
,5.933008,2.18E-11,,
,5.935008,2.13E-11,,
,5.937008,2.16E-11,,
,5.939008,2.19E-11,,
,5.941008,2.22E-11,,
,5.943008,2.21E-11,,
,5.945008,2.09E-11,,
,5.947008,1.96E-11,,
,5.949008,1.85E-11,,
,5.951008,1.82E-11,,
,5.953008,1.82E-11,,
,5.955008,1.82E-11,,
,5.957008,1.83E-11,,
,5.959008,1.81E-11,,
,5.961008,1.75E-11,,
,5.963008,1.62E-11,,
,5.965008,1.50E-11,,
,5.967008,1.41E-11,,
,5.969008,1.38E-11,,
,5.971008,1.40E-11,,
,5.973008,1.41E-11,,
,5.975008,1.40E-11,,
,5.977008,1.33E-11,,
,5.979008,1.23E-11,,
,5.981008,1.16E-11,,
,5.983008,1.10E-11,,
,5.985008,1.07E-11,,
,5.987008,1.07E-11,,
,5.989008,1.09E-11,,
,5.991008,1.14E-11,,
,5.993008,1.11E-11,,
,5.995008,1.04E-11,,
,5.997008,9.31E-12,,
,5.999008,8.56E-12,,
,6.001008,8.24E-12,,
,6.003008,8.46E-12,,
,6.005008,8.89E-12,,
,6.007008,9.31E-12,,
,6.009008,9.31E-12,,
,6.011008,8.78E-12,,
,6.013008,7.81E-12,,
,6.015008,7.06E-12,,
,6.017008,6.85E-12,,
,6.019008,7.17E-12,,
,6.021008,7.81E-12,,
,6.023008,8.13E-12,,
,6.025008,8.35E-12,,
,6.027008,7.92E-12,,
,6.029008,7.27E-12,,
,6.031008,6.31E-12,,
,6.033008,5.77E-12,,
,6.035008,5.77E-12,,
,6.037008,6.31E-12,,
,6.039008,7.17E-12,,
,6.041008,7.60E-12,,
,6.043008,7.81E-12,,
,6.045008,7.27E-12,,
,6.047008,6.42E-12,,
,6.049008,5.77E-12,,
,6.051008,5.56E-12,,
,6.053008,6.42E-12,,
,6.055008,7.06E-12,,
,6.057008,7.81E-12,,
,6.059008,7.81E-12,,
,6.061008,7.70E-12,,
,6.063008,6.95E-12,,
,6.065008,6.09E-12,,
,6.067008,5.66E-12,,
,6.069008,6.20E-12,,
,6.071008,7.27E-12,,
,6.073008,8.24E-12,,
,6.075008,8.67E-12,,
,6.077008,8.56E-12,,
,6.079008,7.92E-12,,
,6.081008,7.38E-12,,
,6.083008,7.49E-12,,
,6.085008,7.92E-12,,
,6.087008,8.56E-12,,
,6.089008,9.21E-12,,
,6.091008,9.96E-12,,
,6.093008,1.01E-11,,
,6.095008,9.64E-12,,
,6.097008,8.89E-12,,
,6.099008,8.24E-12,,
,6.101008,8.13E-12,,
,6.103008,8.56E-12,,
,6.105008,9.42E-12,,
,6.107008,1.01E-11,,
,6.109008,1.03E-11,,
,6.111008,9.96E-12,,
,6.113008,9.10E-12,,
,6.115008,8.35E-12,,
,6.117008,8.13E-12,,
,6.119008,8.56E-12,,
,6.121008,9.21E-12,,
,6.123008,9.96E-12,,
,6.125008,1.01E-11,,
,6.127008,9.64E-12,,
,6.129008,8.78E-12,,
,6.131008,8.13E-12,,
,6.133008,7.81E-12,,
,6.135008,7.81E-12,,
,6.137008,8.24E-12,,
,6.139008,9.10E-12,,
,6.141008,9.64E-12,,
,6.143008,9.64E-12,,
,6.145008,8.89E-12,,
,6.147008,8.13E-12,,
,6.149008,7.60E-12,,
,6.151008,7.70E-12,,
,6.153008,8.35E-12,,
,6.155008,9.10E-12,,
,6.157008,9.64E-12,,
,6.159008,9.64E-12,,
,6.161008,9.21E-12,,
,6.163008,8.78E-12,,
,6.165008,8.46E-12,,
,6.167008,8.35E-12,,
,6.169008,8.56E-12,,
,6.171008,9.31E-12,,
,6.173008,1.05E-11,,
,6.175008,1.14E-11,,
,6.177008,1.14E-11,,
,6.179008,1.08E-11,,
,6.181008,1.03E-11,,
,6.183008,1.02E-11,,
,6.185008,1.06E-11,,
,6.187008,1.14E-11,,
,6.189008,1.25E-11,,
,6.191008,1.36E-11,,
,6.193008,1.38E-11,,
,6.195008,1.34E-11,,
,6.197008,1.28E-11,,
,6.199008,1.26E-11,,
,6.201008,1.32E-11,,
,6.203008,1.43E-11,,
,6.205008,1.54E-11,,
,6.207008,1.63E-11,,
,6.209008,1.68E-11,,
,6.211008,1.68E-11,,
,6.213008,1.63E-11,,
,6.215008,1.58E-11,,
,6.217008,1.58E-11,,
,6.219008,1.65E-11,,
,6.221008,1.76E-11,,
,6.223008,1.85E-11,,
,6.225008,1.91E-11,,
,6.227008,1.93E-11,,
,6.229008,1.90E-11,,
,6.231008,1.85E-11,,
,6.233008,1.82E-11,,
,6.235008,1.85E-11,,
,6.237008,1.92E-11,,
,6.239008,2.02E-11,,
,6.241008,2.07E-11,,
,6.243008,2.08E-11,,
,6.245008,2.01E-11,,
,6.247008,1.93E-11,,
,6.249008,1.89E-11,,
,6.251008,1.88E-11,,
,6.253008,1.91E-11,,
,6.255008,1.96E-11,,
,6.257008,2.03E-11,,
,6.259008,2.06E-11,,
,6.261008,2.02E-11,,
,6.263008,1.95E-11,,
,6.265008,1.89E-11,,
,6.267008,1.85E-11,,
,6.269008,1.87E-11,,
,6.271008,1.90E-11,,
,6.273008,1.96E-11,,
,6.275008,1.96E-11,,
,6.277008,1.93E-11,,
,6.279008,1.83E-11,,
,6.281008,1.75E-11,,
,6.283008,1.69E-11,,
,6.285008,1.69E-11,,
,6.287008,1.75E-11,,
,6.289008,1.81E-11,,
,6.291008,1.87E-11,,
,6.293008,1.84E-11,,
,6.295008,1.77E-11,,
,6.297008,1.66E-11,,
,6.299008,1.60E-11,,
,6.301008,1.59E-11,,
,6.303008,1.62E-11,,
,6.305008,1.68E-11,,
,6.307008,1.72E-11,,
,6.309008,1.73E-11,,
,6.311008,1.70E-11,,
,6.313008,1.65E-11,,
,6.315008,1.63E-11,,
,6.317008,1.63E-11,,
,6.319008,1.72E-11,,
,6.321008,1.80E-11,,
,6.323008,1.91E-11,,
,6.325008,1.95E-11,,
,6.327008,1.96E-11,,
,6.329008,1.91E-11,,
,6.331008,1.89E-11,,
,6.333008,1.91E-11,,
,6.335008,1.97E-11,,
,6.337008,2.08E-11,,
,6.339008,2.18E-11,,
,6.341008,2.31E-11,,
,6.343008,2.36E-11,,
,6.345008,2.37E-11,,
,6.347008,2.33E-11,,
,6.349008,2.32E-11,,
,6.351008,2.36E-11,,
,6.353008,2.43E-11,,
,6.355008,2.54E-11,,
,6.357008,2.65E-11,,
,6.359008,2.74E-11,,
,6.361008,2.77E-11,,
,6.363008,2.76E-11,,
,6.365008,2.74E-11,,
,6.367008,2.76E-11,,
,6.369008,2.84E-11,,
,6.371008,2.98E-11,,
,6.373008,3.12E-11,,
,6.375008,3.22E-11,,
,6.377008,3.24E-11,,
,6.379008,3.21E-11,,
,6.381008,3.18E-11,,
,6.383008,3.19E-11,,
,6.385008,3.25E-11,,
,6.387008,3.36E-11,,
,6.389008,3.48E-11,,
,6.391008,3.58E-11,,
,6.393008,3.60E-11,,
,6.395008,3.59E-11,,
,6.397008,3.53E-11,,
,6.399008,3.50E-11,,
,6.401008,3.48E-11,,
,6.403008,3.52E-11,,
,6.405008,3.62E-11,,
,6.407008,3.71E-11,,
,6.409008,3.75E-11,,
,6.411008,3.72E-11,,
,6.413008,3.64E-11,,
,6.415008,3.57E-11,,
,6.417008,3.53E-11,,
,6.419008,3.59E-11,,
,6.421008,3.67E-11,,
,6.423008,3.75E-11,,
,6.425008,3.77E-11,,
,6.427008,3.72E-11,,
,6.429008,3.62E-11,,
,6.431008,3.52E-11,,
,6.433008,3.44E-11,,
,6.435008,3.45E-11,,
,6.437008,3.47E-11,,
,6.439008,3.54E-11,,
,6.441008,3.57E-11,,
,6.443008,3.58E-11,,
,6.445008,3.52E-11,,
,6.447008,3.43E-11,,
,6.449008,3.35E-11,,
,6.451008,3.30E-11,,
,6.453008,3.33E-11,,
,6.455008,3.38E-11,,
,6.457008,3.43E-11,,
,6.459008,3.41E-11,,
,6.461008,3.35E-11,,
,6.463008,3.24E-11,,
,6.465008,3.16E-11,,
,6.467008,3.12E-11,,
,6.469008,3.14E-11,,
,6.471008,3.19E-11,,
,6.473008,3.23E-11,,
,6.475008,3.23E-11,,
,6.477008,3.19E-11,,
,6.479008,3.10E-11,,
,6.481008,3.01E-11,,
,6.483008,2.94E-11,,
,6.485008,2.93E-11,,
,6.487008,2.94E-11,,
,6.489008,2.99E-11,,
,6.491008,3.00E-11,,
,6.493008,2.99E-11,,
,6.495008,2.92E-11,,
,6.497008,2.82E-11,,
,6.499008,2.74E-11,,
,6.501008,2.68E-11,,
,6.503008,2.69E-11,,
,6.505008,2.71E-11,,
,6.507008,2.77E-11,,
,6.509008,2.77E-11,,
,6.511008,2.71E-11,,
,6.513008,2.60E-11,,
,6.515008,2.51E-11,,
,6.517008,2.46E-11,,
,6.519008,2.45E-11,,
,6.521008,2.47E-11,,
,6.523008,2.51E-11,,
,6.525008,2.54E-11,,
,6.527008,2.51E-11,,
,6.529008,2.42E-11,,
,6.531008,2.33E-11,,
,6.533008,2.25E-11,,
,6.535008,2.23E-11,,
,6.537008,2.25E-11,,
,6.539008,2.33E-11,,
,6.541008,2.37E-11,,
,6.543008,2.37E-11,,
,6.545008,2.31E-11,,
,6.547008,2.21E-11,,
,6.549008,2.14E-11,,
,6.551008,2.11E-11,,
,6.553008,2.16E-11,,
,6.555008,2.20E-11,,
,6.557008,2.24E-11,,
,6.559008,2.26E-11,,
,6.561008,2.24E-11,,
,6.563008,2.18E-11,,
,6.565008,2.11E-11,,
,6.567008,2.09E-11,,
,6.569008,2.11E-11,,
,6.571008,2.16E-11,,
,6.573008,2.21E-11,,
,6.575008,2.26E-11,,
,6.577008,2.28E-11,,
,6.579008,2.23E-11,,
,6.581008,2.17E-11,,
,6.583008,2.12E-11,,
,6.585008,2.17E-11,,
,6.587008,2.23E-11,,
,6.589008,2.33E-11,,
,6.591008,2.38E-11,,
,6.593008,2.40E-11,,
,6.595008,2.37E-11,,
,6.597008,2.29E-11,,
,6.599008,2.23E-11,,
,6.601008,2.21E-11,,
,6.603008,2.25E-11,,
,6.605008,2.34E-11,,
,6.607008,2.39E-11,,
,6.609008,2.46E-11,,
,6.611008,2.42E-11,,
,6.613008,2.35E-11,,
,6.615008,2.25E-11,,
,6.617008,2.23E-11,,
,6.619008,2.29E-11,,
,6.621008,2.36E-11,,
,6.623008,2.42E-11,,
,6.625008,2.43E-11,,
,6.627008,2.40E-11,,
,6.629008,2.35E-11,,
,6.631008,2.27E-11,,
,6.633008,2.26E-11,,
,6.635008,2.25E-11,,
,6.637008,2.32E-11,,
,6.639008,2.38E-11,,
,6.641008,2.45E-11,,
,6.643008,2.45E-11,,
,6.645008,2.40E-11,,
,6.647008,2.32E-11,,
,6.649008,2.26E-11,,
,6.651008,2.25E-11,,
,6.653008,2.32E-11,,
,6.655008,2.40E-11,,
,6.657008,2.47E-11,,
,6.659008,2.49E-11,,
,6.661008,2.45E-11,,
,6.663008,2.36E-11,,
,6.665008,2.27E-11,,
,6.667008,2.23E-11,,
,6.669008,2.26E-11,,
,6.671008,2.32E-11,,
,6.673008,2.38E-11,,
,6.675008,2.40E-11,,
,6.677008,2.38E-11,,
,6.679008,2.33E-11,,
,6.681008,2.24E-11,,
,6.683008,2.19E-11,,
,6.685008,2.16E-11,,
,6.687008,2.19E-11,,
,6.689008,2.24E-11,,
,6.691008,2.26E-11,,
,6.693008,2.24E-11,,
,6.695008,2.16E-11,,
,6.697008,2.07E-11,,
,6.699008,1.98E-11,,
,6.701008,1.96E-11,,
,6.703008,1.97E-11,,
,6.705008,2.03E-11,,
,6.707008,2.06E-11,,
,6.709008,2.06E-11,,
,6.711008,2.01E-11,,
,6.713008,1.93E-11,,
,6.715008,1.84E-11,,
,6.717008,1.80E-11,,
,6.719008,1.82E-11,,
,6.721008,1.88E-11,,
,6.723008,1.94E-11,,
,6.725008,1.97E-11,,
,6.727008,1.95E-11,,
,6.729008,1.88E-11,,
,6.731008,1.79E-11,,
,6.733008,1.76E-11,,
,6.735008,1.78E-11,,
,6.737008,1.81E-11,,
,6.739008,1.88E-11,,
,6.741008,1.92E-11,,
,6.743008,1.96E-11,,
,6.745008,1.93E-11,,
,6.747008,1.88E-11,,
,6.749008,1.81E-11,,
,6.751008,1.82E-11,,
,6.753008,1.89E-11,,
,6.755008,1.97E-11,,
,6.757008,2.05E-11,,
,6.759008,2.06E-11,,
,6.761008,2.02E-11,,
,6.763008,1.92E-11,,
,6.765008,1.87E-11,,
,6.767008,1.85E-11,,
,6.769008,1.91E-11,,
,6.771008,1.99E-11,,
,6.773008,2.06E-11,,
,6.775008,2.09E-11,,
,6.777008,2.04E-11,,
,6.779008,1.97E-11,,
,6.781008,1.88E-11,,
,6.783008,1.81E-11,,
,6.785008,1.80E-11,,
,6.787008,1.87E-11,,
,6.789008,1.95E-11,,
,6.791008,2.01E-11,,
,6.793008,1.99E-11,,
,6.795008,1.94E-11,,
,6.797008,1.84E-11,,
,6.799008,1.77E-11,,
,6.801008,1.76E-11,,
,6.803008,1.81E-11,,
,6.805008,1.90E-11,,
,6.807008,1.96E-11,,
,6.809008,1.97E-11,,
,6.811008,1.92E-11,,
,6.813008,1.82E-11,,
,6.815008,1.77E-11,,
,6.817008,1.74E-11,,
,6.819008,1.77E-11,,
,6.821008,1.82E-11,,
,6.823008,1.91E-11,,
,6.825008,1.94E-11,,
,6.827008,1.93E-11,,
,6.829008,1.84E-11,,
,6.831008,1.79E-11,,
,6.833008,1.74E-11,,
,6.835008,1.75E-11,,
,6.837008,1.78E-11,,
,6.839008,1.87E-11,,
,6.841008,1.92E-11,,
,6.843008,1.92E-11,,
,6.845008,1.84E-11,,
,6.847008,1.77E-11,,
,6.849008,1.72E-11,,
,6.851008,1.70E-11,,
,6.853008,1.74E-11,,
,6.855008,1.81E-11,,
,6.857008,1.88E-11,,
,6.859008,1.94E-11,,
,6.861008,1.91E-11,,
,6.863008,1.88E-11,,
,6.865008,1.78E-11,,
,6.867008,1.76E-11,,
,6.869008,1.79E-11,,
,6.871008,1.89E-11,,
,6.873008,1.97E-11,,
,6.875008,2.03E-11,,
,6.877008,2.03E-11,,
,6.879008,1.99E-11,,
,6.881008,1.92E-11,,
,6.883008,1.89E-11,,
,6.885008,1.91E-11,,
,6.887008,1.98E-11,,
,6.889008,2.07E-11,,
,6.891008,2.13E-11,,
,6.893008,2.16E-11,,
,6.895008,2.11E-11,,
,6.897008,2.07E-11,,
,6.899008,2.06E-11,,
,6.901008,2.10E-11,,
,6.903008,2.18E-11,,
,6.905008,2.25E-11,,
,6.907008,2.35E-11,,
,6.909008,2.39E-11,,
,6.911008,2.38E-11,,
,6.913008,2.34E-11,,
,6.915008,2.32E-11,,
,6.917008,2.35E-11,,
,6.919008,2.40E-11,,
,6.921008,2.48E-11,,
,6.923008,2.56E-11,,
,6.925008,2.64E-11,,
,6.927008,2.66E-11,,
,6.929008,2.63E-11,,
,6.931008,2.58E-11,,
,6.933008,2.58E-11,,
,6.935008,2.63E-11,,
,6.937008,2.70E-11,,
,6.939008,2.80E-11,,
,6.941008,2.89E-11,,
,6.943008,2.91E-11,,
,6.945008,2.84E-11,,
,6.947008,2.76E-11,,
,6.949008,2.71E-11,,
,6.951008,2.74E-11,,
,6.953008,2.81E-11,,
,6.955008,2.92E-11,,
,6.957008,3.04E-11,,
,6.959008,3.09E-11,,
,6.961008,3.08E-11,,
,6.963008,3.02E-11,,
,6.965008,2.99E-11,,
,6.967008,3.01E-11,,
,6.969008,3.07E-11,,
,6.971008,3.14E-11,,
,6.973008,3.21E-11,,
,6.975008,3.24E-11,,
,6.977008,3.24E-11,,
,6.979008,3.19E-11,,
,6.981008,3.12E-11,,
,6.983008,3.11E-11,,
,6.985008,3.14E-11,,
,6.987008,3.22E-11,,
,6.989008,3.27E-11,,
,6.991008,3.36E-11,,
,6.993008,3.39E-11,,
,6.995008,3.36E-11,,
,6.997008,3.27E-11,,
,6.999008,3.21E-11,,
,7.001008,3.22E-11,,
,7.003008,3.27E-11,,
,7.005008,3.37E-11,,
,7.007008,3.42E-11,,
,7.009008,3.42E-11,,
,7.011008,3.37E-11,,
,7.013008,3.30E-11,,
,7.015008,3.27E-11,,
,7.017008,3.26E-11,,
,7.019008,3.31E-11,,
,7.021008,3.39E-11,,
,7.023008,3.48E-11,,
,7.025008,3.51E-11,,
,7.027008,3.47E-11,,
,7.029008,3.39E-11,,
,7.031008,3.33E-11,,
,7.033008,3.33E-11,,
,7.035008,3.35E-11,,
,7.037008,3.39E-11,,
,7.039008,3.43E-11,,
,7.041008,3.47E-11,,
,7.043008,3.44E-11,,
,7.045008,3.38E-11,,
,7.047008,3.29E-11,,
,7.049008,3.24E-11,,
,7.051008,3.20E-11,,
,7.053008,3.22E-11,,
,7.055008,3.27E-11,,
,7.057008,3.35E-11,,
,7.059008,3.35E-11,,
,7.061008,3.28E-11,,
,7.063008,3.16E-11,,
,7.065008,3.07E-11,,
,7.067008,3.01E-11,,
,7.069008,3.02E-11,,
,7.071008,3.08E-11,,
,7.073008,3.13E-11,,
,7.075008,3.13E-11,,
,7.077008,3.08E-11,,
,7.079008,2.97E-11,,
,7.081008,2.87E-11,,
,7.083008,2.80E-11,,
,7.085008,2.80E-11,,
,7.087008,2.84E-11,,
,7.089008,2.92E-11,,
,7.091008,2.95E-11,,
,7.093008,2.91E-11,,
,7.095008,2.83E-11,,
,7.097008,2.71E-11,,
,7.099008,2.67E-11,,
,7.101008,2.64E-11,,
,7.103008,2.67E-11,,
,7.105008,2.70E-11,,
,7.107008,2.74E-11,,
,7.109008,2.72E-11,,
,7.111008,2.65E-11,,
,7.113008,2.54E-11,,
,7.115008,2.47E-11,,
,7.117008,2.43E-11,,
,7.119008,2.45E-11,,
,7.121008,2.51E-11,,
,7.123008,2.56E-11,,
,7.125008,2.58E-11,,
,7.127008,2.54E-11,,
,7.129008,2.46E-11,,
,7.131008,2.37E-11,,
,7.133008,2.32E-11,,
,7.135008,2.32E-11,,
,7.137008,2.36E-11,,
,7.139008,2.39E-11,,
,7.141008,2.41E-11,,
,7.143008,2.37E-11,,
,7.145008,2.27E-11,,
,7.147008,2.18E-11,,
,7.149008,2.11E-11,,
,7.151008,2.11E-11,,
,7.153008,2.13E-11,,
,7.155008,2.19E-11,,
,7.157008,2.24E-11,,
,7.159008,2.26E-11,,
,7.161008,2.23E-11,,
,7.163008,2.16E-11,,
,7.165008,2.07E-11,,
,7.167008,2.05E-11,,
,7.169008,2.08E-11,,
,7.171008,2.16E-11,,
,7.173008,2.23E-11,,
,7.175008,2.25E-11,,
,7.177008,2.23E-11,,
,7.179008,2.14E-11,,
,7.181008,2.07E-11,,
,7.183008,2.04E-11,,
,7.185008,2.07E-11,,
,7.187008,2.12E-11,,
,7.189008,2.20E-11,,
,7.191008,2.23E-11,,
,7.193008,2.23E-11,,
,7.195008,2.17E-11,,
,7.197008,2.08E-11,,
,7.199008,2.03E-11,,
,7.201008,2.03E-11,,
,7.203008,2.09E-11,,
,7.205008,2.18E-11,,
,7.207008,2.25E-11,,
,7.209008,2.27E-11,,
,7.211008,2.22E-11,,
,7.213008,2.14E-11,,
,7.215008,2.08E-11,,
,7.217008,2.05E-11,,
,7.219008,2.06E-11,,
,7.221008,2.11E-11,,
,7.223008,2.19E-11,,
,7.225008,2.20E-11,,
,7.227008,2.13E-11,,
,7.229008,2.05E-11,,
,7.231008,1.97E-11,,
,7.233008,1.93E-11,,
,7.235008,1.93E-11,,
,7.237008,1.97E-11,,
,7.239008,2.05E-11,,
,7.241008,2.10E-11,,
,7.243008,2.08E-11,,
,7.245008,2.03E-11,,
,7.247008,1.94E-11,,
,7.249008,1.90E-11,,
,7.251008,1.89E-11,,
,7.253008,1.91E-11,,
,7.255008,1.97E-11,,
,7.257008,2.03E-11,,
,7.259008,2.06E-11,,
,7.261008,2.03E-11,,
,7.263008,1.96E-11,,
,7.265008,1.89E-11,,
,7.267008,1.87E-11,,
,7.269008,1.91E-11,,
,7.271008,1.99E-11,,
,7.273008,2.07E-11,,
,7.275008,2.09E-11,,
,7.277008,2.07E-11,,
,7.279008,2.02E-11,,
,7.281008,1.94E-11,,
,7.283008,1.92E-11,,
,7.285008,1.91E-11,,
,7.287008,1.99E-11,,
,7.289008,2.07E-11,,
,7.291008,2.16E-11,,
,7.293008,2.13E-11,,
,7.295008,2.08E-11,,
,7.297008,2.01E-11,,
,7.299008,1.99E-11,,
,7.301008,1.99E-11,,
,7.303008,2.05E-11,,
,7.305008,2.10E-11,,
,7.307008,2.19E-11,,
,7.309008,2.21E-11,,
,7.311008,2.19E-11,,
,7.313008,2.11E-11,,
,7.315008,2.06E-11,,
,7.317008,2.05E-11,,
,7.319008,2.07E-11,,
,7.321008,2.16E-11,,
,7.323008,2.24E-11,,
,7.325008,2.31E-11,,
,7.327008,2.26E-11,,
,7.329008,2.16E-11,,
,7.331008,2.07E-11,,
,7.333008,2.03E-11,,
,7.335008,2.07E-11,,
,7.337008,2.12E-11,,
,7.339008,2.22E-11,,
,7.341008,2.27E-11,,
,7.343008,2.27E-11,,
,7.345008,2.22E-11,,
,7.347008,2.18E-11,,
,7.349008,2.13E-11,,
,7.351008,2.16E-11,,
,7.353008,2.19E-11,,
,7.355008,2.28E-11,,
,7.357008,2.35E-11,,
,7.359008,2.38E-11,,
,7.361008,2.34E-11,,
,7.363008,2.26E-11,,
,7.365008,2.21E-11,,
,7.367008,2.22E-11,,
,7.369008,2.28E-11,,
,7.371008,2.36E-11,,
,7.373008,2.41E-11,,
,7.375008,2.43E-11,,
,7.377008,2.40E-11,,
,7.379008,2.34E-11,,
,7.381008,2.26E-11,,
,7.383008,2.22E-11,,
,7.385008,2.24E-11,,
,7.387008,2.29E-11,,
,7.389008,2.37E-11,,
,7.391008,2.40E-11,,
,7.393008,2.39E-11,,
,7.395008,2.33E-11,,
,7.397008,2.26E-11,,
,7.399008,2.21E-11,,
,7.401008,2.21E-11,,
,7.403008,2.24E-11,,
,7.405008,2.32E-11,,
,7.407008,2.37E-11,,
,7.409008,2.38E-11,,
,7.411008,2.33E-11,,
,7.413008,2.23E-11,,
,7.415008,2.16E-11,,
,7.417008,2.12E-11,,
,7.419008,2.16E-11,,
,7.421008,2.22E-11,,
,7.423008,2.28E-11,,
,7.425008,2.32E-11,,
,7.427008,2.28E-11,,
,7.429008,2.22E-11,,
,7.431008,2.17E-11,,
,7.433008,2.12E-11,,
,7.435008,2.12E-11,,
,7.437008,2.16E-11,,
,7.439008,2.24E-11,,
,7.441008,2.27E-11,,
,7.443008,2.25E-11,,
,7.445008,2.18E-11,,
,7.447008,2.09E-11,,
,7.449008,2.02E-11,,
,7.451008,1.99E-11,,
,7.453008,2.05E-11,,
,7.455008,2.12E-11,,
,7.457008,2.18E-11,,
,7.459008,2.18E-11,,
,7.461008,2.11E-11,,
,7.463008,2.03E-11,,
,7.465008,1.95E-11,,
,7.467008,1.95E-11,,
,7.469008,1.97E-11,,
,7.471008,2.02E-11,,
,7.473008,2.06E-11,,
,7.475008,2.07E-11,,
,7.477008,2.05E-11,,
,7.479008,1.96E-11,,
,7.481008,1.89E-11,,
,7.483008,1.83E-11,,
,7.485008,1.84E-11,,
,7.487008,1.89E-11,,
,7.489008,1.95E-11,,
,7.491008,1.99E-11,,
,7.493008,1.97E-11,,
,7.495008,1.90E-11,,
,7.497008,1.81E-11,,
,7.499008,1.75E-11,,
,7.501008,1.76E-11,,
,7.503008,1.81E-11,,
,7.505008,1.89E-11,,
,7.507008,1.95E-11,,
,7.509008,1.94E-11,,
,7.511008,1.91E-11,,
,7.513008,1.81E-11,,
,7.515008,1.75E-11,,
,7.517008,1.73E-11,,
,7.519008,1.76E-11,,
,7.521008,1.82E-11,,
,7.523008,1.89E-11,,
,7.525008,1.91E-11,,
,7.527008,1.90E-11,,
,7.529008,1.83E-11,,
,7.531008,1.78E-11,,
,7.533008,1.75E-11,,
,7.535008,1.75E-11,,
,7.537008,1.81E-11,,
,7.539008,1.88E-11,,
,7.541008,1.94E-11,,
,7.543008,1.92E-11,,
,7.545008,1.85E-11,,
,7.547008,1.76E-11,,
,7.549008,1.72E-11,,
,7.551008,1.72E-11,,
,7.553008,1.78E-11,,
,7.555008,1.84E-11,,
,7.557008,1.92E-11,,
,7.559008,1.93E-11,,
,7.561008,1.87E-11,,
,7.563008,1.80E-11,,
,7.565008,1.75E-11,,
,7.567008,1.75E-11,,
,7.569008,1.76E-11,,
,7.571008,1.83E-11,,
,7.573008,1.91E-11,,
,7.575008,1.95E-11,,
,7.577008,1.92E-11,,
,7.579008,1.85E-11,,
,7.581008,1.80E-11,,
,7.583008,1.77E-11,,
,7.585008,1.78E-11,,
,7.587008,1.81E-11,,
,7.589008,1.89E-11,,
,7.591008,1.94E-11,,
,7.593008,1.96E-11,,
,7.595008,1.91E-11,,
,7.597008,1.84E-11,,
,7.599008,1.78E-11,,
,7.601008,1.80E-11,,
,7.603008,1.87E-11,,
,7.605008,1.96E-11,,
,7.607008,2.03E-11,,
,7.609008,2.05E-11,,
,7.611008,1.99E-11,,
,7.613008,1.92E-11,,
,7.615008,1.85E-11,,
,7.617008,1.85E-11,,
,7.619008,1.89E-11,,
,7.621008,1.96E-11,,
,7.623008,2.04E-11,,
,7.625008,2.08E-11,,
,7.627008,2.07E-11,,
,7.629008,1.98E-11,,
,7.631008,1.92E-11,,
,7.633008,1.89E-11,,
,7.635008,1.95E-11,,
,7.637008,2.02E-11,,
,7.639008,2.10E-11,,
,7.641008,2.13E-11,,
,7.643008,2.12E-11,,
,7.645008,2.06E-11,,
,7.647008,1.97E-11,,
,7.649008,1.93E-11,,
,7.651008,1.93E-11,,
,7.653008,1.98E-11,,
,7.655008,2.06E-11,,
,7.657008,2.12E-11,,
,7.659008,2.16E-11,,
,7.661008,2.11E-11,,
,7.663008,2.04E-11,,
,7.665008,1.97E-11,,
,7.667008,1.96E-11,,
,7.669008,1.99E-11,,
,7.671008,2.05E-11,,
,7.673008,2.12E-11,,
,7.675008,2.16E-11,,
,7.677008,2.13E-11,,
,7.679008,2.08E-11,,
,7.681008,2.03E-11,,
,7.683008,2.01E-11,,
,7.685008,2.04E-11,,
,7.687008,2.11E-11,,
,7.689008,2.21E-11,,
,7.691008,2.25E-11,,
,7.693008,2.25E-11,,
,7.695008,2.18E-11,,
,7.697008,2.10E-11,,
,7.699008,2.05E-11,,
,7.701008,2.06E-11,,
,7.703008,2.09E-11,,
,7.705008,2.17E-11,,
,7.707008,2.22E-11,,
,7.709008,2.22E-11,,
,7.711008,2.14E-11,,
,7.713008,2.09E-11,,
,7.715008,2.05E-11,,
,7.717008,2.05E-11,,
,7.719008,2.06E-11,,
,7.721008,2.12E-11,,
,7.723008,2.19E-11,,
,7.725008,2.22E-11,,
,7.727008,2.18E-11,,
,7.729008,2.08E-11,,
,7.731008,1.99E-11,,
,7.733008,1.97E-11,,
,7.735008,1.99E-11,,
,7.737008,2.06E-11,,
,7.739008,2.12E-11,,
,7.741008,2.17E-11,,
,7.743008,2.13E-11,,
,7.745008,2.05E-11,,
,7.747008,1.95E-11,,
,7.749008,1.90E-11,,
,7.751008,1.91E-11,,
,7.753008,1.94E-11,,
,7.755008,1.99E-11,,
,7.757008,2.04E-11,,
,7.759008,2.06E-11,,
,7.761008,2.01E-11,,
,7.763008,1.91E-11,,
,7.765008,1.83E-11,,
,7.767008,1.81E-11,,
,7.769008,1.84E-11,,
,7.771008,1.90E-11,,
,7.773008,1.95E-11,,
,7.775008,1.98E-11,,
,7.777008,1.96E-11,,
,7.779008,1.89E-11,,
,7.781008,1.80E-11,,
,7.783008,1.78E-11,,
,7.785008,1.81E-11,,
,7.787008,1.89E-11,,
,7.789008,1.95E-11,,
,7.791008,2.02E-11,,
,7.793008,2.01E-11,,
,7.795008,1.94E-11,,
,7.797008,1.88E-11,,
,7.799008,1.83E-11,,
,7.801008,1.88E-11,,
,7.803008,1.92E-11,,
,7.805008,2.02E-11,,
,7.807008,2.07E-11,,
,7.809008,2.10E-11,,
,7.811008,2.05E-11,,
,7.813008,2.02E-11,,
,7.815008,1.94E-11,,
,7.817008,1.96E-11,,
,7.819008,1.97E-11,,
,7.821008,2.09E-11,,
,7.823008,2.17E-11,,
,7.825008,2.24E-11,,
,7.827008,2.21E-11,,
,7.829008,2.14E-11,,
,7.831008,2.08E-11,,
,7.833008,2.07E-11,,
,7.835008,2.10E-11,,
,7.837008,2.14E-11,,
,7.839008,2.20E-11,,
,7.841008,2.25E-11,,
,7.843008,2.27E-11,,
,7.845008,2.23E-11,,
,7.847008,2.18E-11,,
,7.849008,2.13E-11,,
,7.851008,2.17E-11,,
,7.853008,2.22E-11,,
,7.855008,2.29E-11,,
,7.857008,2.34E-11,,
,7.859008,2.33E-11,,
,7.861008,2.26E-11,,
,7.863008,2.20E-11,,
,7.865008,2.13E-11,,
,7.867008,2.13E-11,,
,7.869008,2.18E-11,,
,7.871008,2.28E-11,,
,7.873008,2.35E-11,,
,7.875008,2.37E-11,,
,7.877008,2.34E-11,,
,7.879008,2.26E-11,,
,7.881008,2.21E-11,,
,7.883008,2.18E-11,,
,7.885008,2.22E-11,,
,7.887008,2.28E-11,,
,7.889008,2.35E-11,,
,7.891008,2.37E-11,,
,7.893008,2.34E-11,,
,7.895008,2.27E-11,,
,7.897008,2.21E-11,,
,7.899008,2.17E-11,,
,7.901008,2.17E-11,,
,7.903008,2.19E-11,,
,7.905008,2.24E-11,,
,7.907008,2.28E-11,,
,7.909008,2.31E-11,,
,7.911008,2.25E-11,,
,7.913008,2.18E-11,,
,7.915008,2.10E-11,,
,7.917008,2.07E-11,,
,7.919008,2.08E-11,,
,7.921008,2.12E-11,,
,7.923008,2.20E-11,,
,7.925008,2.21E-11,,
,7.927008,2.17E-11,,
,7.929008,2.07E-11,,
,7.931008,1.96E-11,,
,7.933008,1.92E-11,,
,7.935008,1.89E-11,,
,7.937008,1.95E-11,,
,7.939008,2.01E-11,,
,7.941008,2.06E-11,,
,7.943008,2.01E-11,,
,7.945008,1.92E-11,,
,7.947008,1.80E-11,,
,7.949008,1.74E-11,,
,7.951008,1.69E-11,,
,7.953008,1.72E-11,,
,7.955008,1.77E-11,,
,7.957008,1.82E-11,,
,7.959008,1.81E-11,,
,7.961008,1.76E-11,,
,7.963008,1.67E-11,,
,7.965008,1.63E-11,,
,7.967008,1.62E-11,,
,7.969008,1.65E-11,,
,7.971008,1.72E-11,,
,7.973008,1.75E-11,,
,7.975008,1.76E-11,,
,7.977008,1.69E-11,,
,7.979008,1.62E-11,,
,7.981008,1.54E-11,,
,7.983008,1.51E-11,,
,7.985008,1.50E-11,,
,7.987008,1.53E-11,,
,7.989008,1.59E-11,,
,7.991008,1.64E-11,,
,7.993008,1.62E-11,,
,7.995008,1.56E-11,,
,7.997008,1.49E-11,,
,7.999008,1.45E-11,,
,8.001008,1.44E-11,,
,8.003008,1.46E-11,,
,8.005008,1.52E-11,,
,8.007008,1.55E-11,,
,8.009008,1.54E-11,,
,8.011008,1.46E-11,,
,8.013008,1.36E-11,,
,8.015008,1.28E-11,,
,8.017008,1.28E-11,,
,8.019008,1.31E-11,,
,8.021008,1.37E-11,,
,8.023008,1.44E-11,,
,8.025008,1.47E-11,,
,8.027008,1.46E-11,,
,8.029008,1.36E-11,,
,8.031008,1.30E-11,,
,8.033008,1.26E-11,,
,8.035008,1.31E-11,,
,8.037008,1.37E-11,,
,8.039008,1.46E-11,,
,8.041008,1.50E-11,,
,8.043008,1.47E-11,,
,8.045008,1.40E-11,,
,8.047008,1.34E-11,,
,8.049008,1.31E-11,,
,8.051008,1.30E-11,,
,8.053008,1.35E-11,,
,8.055008,1.45E-11,,
,8.057008,1.53E-11,,
,8.059008,1.54E-11,,
,8.061008,1.50E-11,,
,8.063008,1.47E-11,,
,8.065008,1.41E-11,,
,8.067008,1.41E-11,,
,8.069008,1.45E-11,,
,8.071008,1.54E-11,,
,8.073008,1.62E-11,,
,8.075008,1.66E-11,,
,8.077008,1.64E-11,,
,8.079008,1.59E-11,,
,8.081008,1.52E-11,,
,8.083008,1.51E-11,,
,8.085008,1.55E-11,,
,8.087008,1.64E-11,,
,8.089008,1.73E-11,,
,8.091008,1.78E-11,,
,8.093008,1.78E-11,,
,8.095008,1.73E-11,,
,8.097008,1.65E-11,,
,8.099008,1.61E-11,,
,8.101008,1.62E-11,,
,8.103008,1.69E-11,,
,8.105008,1.77E-11,,
,8.107008,1.84E-11,,
,8.109008,1.85E-11,,
,8.111008,1.80E-11,,
,8.113008,1.73E-11,,
,8.115008,1.65E-11,,
,8.117008,1.63E-11,,
,8.119008,1.66E-11,,
,8.121008,1.73E-11,,
,8.123008,1.81E-11,,
,8.125008,1.85E-11,,
,8.127008,1.85E-11,,
,8.129008,1.79E-11,,
,8.131008,1.72E-11,,
,8.133008,1.69E-11,,
,8.135008,1.69E-11,,
,8.137008,1.75E-11,,
,8.139008,1.83E-11,,
,8.141008,1.90E-11,,
,8.143008,1.88E-11,,
,8.145008,1.78E-11,,
,8.147008,1.70E-11,,
,8.149008,1.68E-11,,
,8.151008,1.70E-11,,
,8.153008,1.76E-11,,
,8.155008,1.82E-11,,
,8.157008,1.87E-11,,
,8.159008,1.89E-11,,
,8.161008,1.85E-11,,
,8.163008,1.78E-11,,
,8.165008,1.70E-11,,
,8.167008,1.68E-11,,
,8.169008,1.73E-11,,
,8.171008,1.78E-11,,
,8.173008,1.83E-11,,
,8.175008,1.85E-11,,
,8.177008,1.84E-11,,
,8.179008,1.77E-11,,
,8.181008,1.67E-11,,
,8.183008,1.63E-11,,
,8.185008,1.65E-11,,
,8.187008,1.70E-11,,
,8.189008,1.74E-11,,
,8.191008,1.77E-11,,
,8.193008,1.78E-11,,
,8.195008,1.72E-11,,
,8.197008,1.61E-11,,
,8.199008,1.51E-11,,
,8.201008,1.51E-11,,
,8.203008,1.56E-11,,
,8.205008,1.64E-11,,
,8.207008,1.67E-11,,
,8.209008,1.65E-11,,
,8.211008,1.58E-11,,
,8.213008,1.49E-11,,
,8.215008,1.43E-11,,
,8.217008,1.43E-11,,
,8.219008,1.45E-11,,
,8.221008,1.50E-11,,
,8.223008,1.54E-11,,
,8.225008,1.55E-11,,
,8.227008,1.50E-11,,
,8.229008,1.41E-11,,
,8.231008,1.35E-11,,
,8.233008,1.31E-11,,
,8.235008,1.33E-11,,
,8.237008,1.37E-11,,
,8.239008,1.45E-11,,
,8.241008,1.48E-11,,
,8.243008,1.47E-11,,
,8.245008,1.38E-11,,
,8.247008,1.29E-11,,
,8.249008,1.22E-11,,
,8.251008,1.23E-11,,
,8.253008,1.30E-11,,
,8.255008,1.36E-11,,
,8.257008,1.40E-11,,
,8.259008,1.38E-11,,
,8.261008,1.33E-11,,
,8.263008,1.24E-11,,
,8.265008,1.19E-11,,
,8.267008,1.17E-11,,
,8.269008,1.21E-11,,
,8.271008,1.25E-11,,
,8.273008,1.32E-11,,
,8.275008,1.35E-11,,
,8.277008,1.31E-11,,
,8.279008,1.22E-11,,
,8.281008,1.14E-11,,
,8.283008,1.12E-11,,
,8.285008,1.16E-11,,
,8.287008,1.20E-11,,
,8.289008,1.28E-11,,
,8.291008,1.32E-11,,
,8.293008,1.34E-11,,
,8.295008,1.28E-11,,
,8.297008,1.19E-11,,
,8.299008,1.12E-11,,
,8.301008,1.12E-11,,
,8.303008,1.17E-11,,
,8.305008,1.23E-11,,
,8.307008,1.28E-11,,
,8.309008,1.29E-11,,
,8.311008,1.22E-11,,
,8.313008,1.17E-11,,
,8.315008,1.10E-11,,
,8.317008,1.11E-11,,
,8.319008,1.14E-11,,
,8.321008,1.19E-11,,
,8.323008,1.24E-11,,
,8.325008,1.26E-11,,
,8.327008,1.25E-11,,
,8.329008,1.19E-11,,
,8.331008,1.12E-11,,
,8.333008,1.08E-11,,
,8.335008,1.09E-11,,
,8.337008,1.14E-11,,
,8.339008,1.23E-11,,
,8.341008,1.29E-11,,
,8.343008,1.29E-11,,
,8.345008,1.21E-11,,
,8.347008,1.14E-11,,
,8.349008,1.10E-11,,
,8.351008,1.10E-11,,
,8.353008,1.17E-11,,
,8.355008,1.25E-11,,
,8.357008,1.34E-11,,
,8.359008,1.35E-11,,
,8.361008,1.29E-11,,
,8.363008,1.21E-11,,
,8.365008,1.16E-11,,
,8.367008,1.18E-11,,
,8.369008,1.21E-11,,
,8.371008,1.30E-11,,
,8.373008,1.36E-11,,
,8.375008,1.43E-11,,
,8.377008,1.39E-11,,
,8.379008,1.32E-11,,
,8.381008,1.25E-11,,
,8.383008,1.23E-11,,
,8.385008,1.28E-11,,
,8.387008,1.34E-11,,
,8.389008,1.44E-11,,
,8.391008,1.50E-11,,
,8.393008,1.51E-11,,
,8.395008,1.46E-11,,
,8.397008,1.40E-11,,
,8.399008,1.38E-11,,
,8.401008,1.43E-11,,
,8.403008,1.49E-11,,
,8.405008,1.58E-11,,
,8.407008,1.64E-11,,
,8.409008,1.68E-11,,
,8.411008,1.64E-11,,
,8.413008,1.59E-11,,
,8.415008,1.53E-11,,
,8.417008,1.56E-11,,
,8.419008,1.63E-11,,
,8.421008,1.74E-11,,
,8.423008,1.82E-11,,
,8.425008,1.88E-11,,
,8.427008,1.84E-11,,
,8.429008,1.80E-11,,
,8.431008,1.75E-11,,
,8.433008,1.76E-11,,
,8.435008,1.78E-11,,
,8.437008,1.84E-11,,
,8.439008,1.92E-11,,
,8.441008,1.97E-11,,
,8.443008,1.98E-11,,
,8.445008,1.93E-11,,
,8.447008,1.87E-11,,
,8.449008,1.82E-11,,
,8.451008,1.85E-11,,
,8.453008,1.92E-11,,
,8.455008,2.01E-11,,
,8.457008,2.05E-11,,
,8.459008,2.06E-11,,
,8.461008,2.01E-11,,
,8.463008,1.93E-11,,
,8.465008,1.87E-11,,
,8.467008,1.82E-11,,
,8.469008,1.84E-11,,
,8.471008,1.91E-11,,
,8.473008,1.99E-11,,
,8.475008,2.02E-11,,
,8.477008,1.96E-11,,
,8.479008,1.88E-11,,
,8.481008,1.79E-11,,
,8.483008,1.77E-11,,
,8.485008,1.78E-11,,
,8.487008,1.84E-11,,
,8.489008,1.90E-11,,
,8.491008,1.93E-11,,
,8.493008,1.92E-11,,
,8.495008,1.84E-11,,
,8.497008,1.78E-11,,
,8.499008,1.70E-11,,
,8.501008,1.72E-11,,
,8.503008,1.76E-11,,
,8.505008,1.84E-11,,
,8.507008,1.89E-11,,
,8.509008,1.90E-11,,
,8.511008,1.82E-11,,
,8.513008,1.74E-11,,
,8.515008,1.65E-11,,
,8.517008,1.64E-11,,
,8.519008,1.68E-11,,
,8.521008,1.75E-11,,
,8.523008,1.81E-11,,
,8.525008,1.82E-11,,
,8.527008,1.78E-11,,
,8.529008,1.69E-11,,
,8.531008,1.64E-11,,
,8.533008,1.61E-11,,
,8.535008,1.64E-11,,
,8.537008,1.68E-11,,
,8.539008,1.74E-11,,
,8.541008,1.76E-11,,
,8.543008,1.74E-11,,
,8.545008,1.68E-11,,
,8.547008,1.60E-11,,
,8.549008,1.54E-11,,
,8.551008,1.56E-11,,
,8.553008,1.64E-11,,
,8.555008,1.73E-11,,
,8.557008,1.78E-11,,
,8.559008,1.80E-11,,
,8.561008,1.76E-11,,
,8.563008,1.65E-11,,
,8.565008,1.56E-11,,
,8.567008,1.54E-11,,
,8.569008,1.60E-11,,
,8.571008,1.65E-11,,
,8.573008,1.69E-11,,
,8.575008,1.72E-11,,
,8.577008,1.68E-11,,
,8.579008,1.62E-11,,
,8.581008,1.53E-11,,
,8.583008,1.51E-11,,
,8.585008,1.52E-11,,
,8.587008,1.59E-11,,
,8.589008,1.64E-11,,
,8.591008,1.66E-11,,
,8.593008,1.64E-11,,
,8.595008,1.59E-11,,
,8.597008,1.52E-11,,
,8.599008,1.47E-11,,
,8.601008,1.47E-11,,
,8.603008,1.52E-11,,
,8.605008,1.61E-11,,
,8.607008,1.65E-11,,
,8.609008,1.65E-11,,
,8.611008,1.59E-11,,
,8.613008,1.50E-11,,
,8.615008,1.45E-11,,
,8.617008,1.44E-11,,
,8.619008,1.48E-11,,
,8.621008,1.55E-11,,
,8.623008,1.64E-11,,
,8.625008,1.69E-11,,
,8.627008,1.66E-11,,
,8.629008,1.59E-11,,
,8.631008,1.52E-11,,
,8.633008,1.52E-11,,
,8.635008,1.56E-11,,
,8.637008,1.64E-11,,
,8.639008,1.72E-11,,
,8.641008,1.76E-11,,
,8.643008,1.75E-11,,
,8.645008,1.69E-11,,
,8.647008,1.63E-11,,
,8.649008,1.61E-11,,
,8.651008,1.62E-11,,
,8.653008,1.68E-11,,
,8.655008,1.74E-11,,
,8.657008,1.81E-11,,
,8.659008,1.83E-11,,
,8.661008,1.81E-11,,
,8.663008,1.75E-11,,
,8.665008,1.69E-11,,
,8.667008,1.69E-11,,
,8.669008,1.75E-11,,
,8.671008,1.84E-11,,
,8.673008,1.91E-11,,
,8.675008,1.93E-11,,
,8.677008,1.90E-11,,
,8.679008,1.84E-11,,
,8.681008,1.80E-11,,
,8.683008,1.79E-11,,
,8.685008,1.85E-11,,
,8.687008,1.94E-11,,
,8.689008,2.06E-11,,
,8.691008,2.12E-11,,
,8.693008,2.12E-11,,
,8.695008,2.07E-11,,
,8.697008,2.03E-11,,
,8.699008,2.02E-11,,
,8.701008,2.03E-11,,
,8.703008,2.09E-11,,
,8.705008,2.18E-11,,
,8.707008,2.25E-11,,
,8.709008,2.26E-11,,
,8.711008,2.22E-11,,
,8.713008,2.19E-11,,
,8.715008,2.16E-11,,
,8.717008,2.18E-11,,
,8.719008,2.21E-11,,
,8.721008,2.29E-11,,
,8.723008,2.37E-11,,
,8.725008,2.43E-11,,
,8.727008,2.40E-11,,
,8.729008,2.32E-11,,
,8.731008,2.21E-11,,
,8.733008,2.18E-11,,
,8.735008,2.22E-11,,
,8.737008,2.28E-11,,
,8.739008,2.35E-11,,
,8.741008,2.39E-11,,
,8.743008,2.39E-11,,
,8.745008,2.35E-11,,
,8.747008,2.27E-11,,
,8.749008,2.24E-11,,
,8.751008,2.23E-11,,
,8.753008,2.28E-11,,
,8.755008,2.36E-11,,
,8.757008,2.42E-11,,
,8.759008,2.41E-11,,
,8.761008,2.38E-11,,
,8.763008,2.31E-11,,
,8.765008,2.24E-11,,
,8.767008,2.18E-11,,
,8.769008,2.20E-11,,
,8.771008,2.27E-11,,
,8.773008,2.34E-11,,
,8.775008,2.35E-11,,
,8.777008,2.27E-11,,
,8.779008,2.18E-11,,
,8.781008,2.10E-11,,
,8.783008,2.07E-11,,
,8.785008,2.07E-11,,
,8.787008,2.10E-11,,
,8.789008,2.17E-11,,
,8.791008,2.20E-11,,
,8.793008,2.19E-11,,
,8.795008,2.09E-11,,
,8.797008,2.02E-11,,
,8.799008,1.93E-11,,
,8.801008,1.93E-11,,
,8.803008,1.93E-11,,
,8.805008,1.96E-11,,
,8.807008,1.98E-11,,
,8.809008,1.96E-11,,
,8.811008,1.88E-11,,
,8.813008,1.76E-11,,
,8.815008,1.67E-11,,
,8.817008,1.66E-11,,
,8.819008,1.68E-11,,
,8.821008,1.74E-11,,
,8.823008,1.75E-11,,
,8.825008,1.74E-11,,
,8.827008,1.67E-11,,
,8.829008,1.58E-11,,
,8.831008,1.50E-11,,
,8.833008,1.44E-11,,
,8.835008,1.43E-11,,
,8.837008,1.44E-11,,
,8.839008,1.47E-11,,
,8.841008,1.50E-11,,
,8.843008,1.48E-11,,
,8.845008,1.40E-11,,
,8.847008,1.32E-11,,
,8.849008,1.24E-11,,
,8.851008,1.22E-11,,
,8.853008,1.25E-11,,
,8.855008,1.30E-11,,
,8.857008,1.33E-11,,
,8.859008,1.29E-11,,
,8.861008,1.22E-11,,
,8.863008,1.15E-11,,
,8.865008,1.09E-11,,
,8.867008,1.05E-11,,
,8.869008,1.06E-11,,
,8.871008,1.09E-11,,
,8.873008,1.15E-11,,
,8.875008,1.15E-11,,
,8.877008,1.09E-11,,
,8.879008,1.01E-11,,
,8.881008,9.31E-12,,
,8.883008,8.99E-12,,
,8.885008,9.21E-12,,
,8.887008,9.85E-12,,
,8.889008,1.07E-11,,
,8.891008,1.11E-11,,
,8.893008,1.09E-11,,
,8.895008,1.03E-11,,
,8.897008,9.53E-12,,
,8.899008,9.21E-12,,
,8.901008,9.42E-12,,
,8.903008,1.01E-11,,
,8.905008,1.09E-11,,
,8.907008,1.14E-11,,
,8.909008,1.14E-11,,
,8.911008,1.09E-11,,
,8.913008,1.04E-11,,
,8.915008,9.85E-12,,
,8.917008,9.74E-12,,
,8.919008,1.03E-11,,
,8.921008,1.12E-11,,
,8.923008,1.20E-11,,
,8.925008,1.22E-11,,
,8.927008,1.18E-11,,
,8.929008,1.12E-11,,
,8.931008,1.07E-11,,
,8.933008,1.07E-11,,
,8.935008,1.09E-11,,
,8.937008,1.17E-11,,
,8.939008,1.25E-11,,
,8.941008,1.32E-11,,
,8.943008,1.29E-11,,
,8.945008,1.21E-11,,
,8.947008,1.14E-11,,
,8.949008,1.10E-11,,
,8.951008,1.10E-11,,
,8.953008,1.14E-11,,
,8.955008,1.22E-11,,
,8.957008,1.32E-11,,
,8.959008,1.37E-11,,
,8.961008,1.35E-11,,
,8.963008,1.28E-11,,
,8.965008,1.20E-11,,
,8.967008,1.20E-11,,
,8.969008,1.26E-11,,
,8.971008,1.35E-11,,
,8.973008,1.41E-11,,
,8.975008,1.43E-11,,
,8.977008,1.38E-11,,
,8.979008,1.30E-11,,
,8.981008,1.23E-11,,
,8.983008,1.23E-11,,
,8.985008,1.28E-11,,
,8.987008,1.35E-11,,
,8.989008,1.40E-11,,
,8.991008,1.45E-11,,
,8.993008,1.41E-11,,
,8.995008,1.35E-11,,
,8.997008,1.25E-11,,
,8.999008,1.21E-11,,
,9.001008,1.20E-11,,
,9.003008,1.23E-11,,
,9.005008,1.28E-11,,
,9.007008,1.33E-11,,
,9.009008,1.34E-11,,
,9.011008,1.30E-11,,
,9.013008,1.19E-11,,
,9.015008,1.11E-11,,
,9.017008,1.08E-11,,
,9.019008,1.11E-11,,
,9.021008,1.18E-11,,
,9.023008,1.23E-11,,
,9.025008,1.25E-11,,
,9.027008,1.20E-11,,
,9.029008,1.12E-11,,
,9.031008,1.05E-11,,
,9.033008,1.02E-11,,
,9.035008,1.04E-11,,
,9.037008,1.09E-11,,
,9.039008,1.15E-11,,
,9.041008,1.16E-11,,
,9.043008,1.12E-11,,
,9.045008,1.03E-11,,
,9.047008,9.42E-12,,
,9.049008,8.78E-12,,
,9.051008,9.10E-12,,
,9.053008,9.53E-12,,
,9.055008,1.02E-11,,
,9.057008,1.05E-11,,
,9.059008,1.05E-11,,
,9.061008,9.85E-12,,
,9.063008,8.99E-12,,
,9.065008,8.03E-12,,
,9.067008,7.92E-12,,
,9.069008,8.13E-12,,
,9.071008,8.78E-12,,
,9.073008,8.99E-12,,
,9.075008,8.99E-12,,
,9.077008,8.56E-12,,
,9.079008,7.81E-12,,
,9.081008,6.85E-12,,
,9.083008,6.31E-12,,
,9.085008,6.31E-12,,
,9.087008,6.95E-12,,
,9.089008,7.38E-12,,
,9.091008,7.70E-12,,
,9.093008,7.27E-12,,
,9.095008,6.42E-12,,
,9.097008,5.56E-12,,
,9.099008,4.70E-12,,
,9.101008,4.81E-12,,
,9.103008,4.81E-12,,
,9.105008,5.34E-12,,
,9.107008,5.66E-12,,
,9.109008,5.56E-12,,
,9.111008,4.91E-12,,
,9.113008,3.84E-12,,
,9.115008,3.20E-12,,
,9.117008,2.87E-12,,
,9.119008,2.98E-12,,
,9.121008,3.30E-12,,
,9.123008,3.62E-12,,
,9.125008,3.30E-12,,
,9.127008,2.55E-12,,
,9.129008,1.37E-12,,
,9.131008,5.11E-13,,
,9.133008,-2.53E-14,,
,9.135008,8.20E-14,,
,9.137008,4.04E-13,,
,9.139008,8.34E-13,,
,9.141008,9.41E-13,,
,9.143008,4.04E-13,,
,9.145008,-5.62E-13,,
,9.147008,-1.64E-12,,
,9.149008,-2.17E-12,,
,9.151008,-2.28E-12,,
,9.153008,-1.96E-12,,
,9.155008,-1.64E-12,,
,9.157008,-1.21E-12,,
,9.159008,-1.21E-12,,
,9.161008,-1.64E-12,,
,9.163008,-2.49E-12,,
,9.165008,-3.25E-12,,
,9.167008,-3.46E-12,,
,9.169008,-3.25E-12,,
,9.171008,-2.60E-12,,
,9.173008,-2.07E-12,,
,9.175008,-2.07E-12,,
,9.177008,-2.71E-12,,
,9.179008,-3.68E-12,,
,9.181008,-4.32E-12,,
,9.183008,-4.64E-12,,
,9.185008,-4.32E-12,,
,9.187008,-3.78E-12,,
,9.189008,-3.35E-12,,
,9.191008,-3.03E-12,,
,9.193008,-3.25E-12,,
,9.195008,-3.68E-12,,
,9.197008,-4.43E-12,,
,9.199008,-4.86E-12,,
,9.201008,-4.75E-12,,
,9.203008,-4.43E-12,,
,9.205008,-3.78E-12,,
,9.207008,-3.35E-12,,
,9.209008,-3.35E-12,,
,9.211008,-4.10E-12,,
,9.213008,-5.18E-12,,
,9.215008,-5.82E-12,,
,9.217008,-5.82E-12,,
,9.219008,-5.29E-12,,
,9.221008,-4.64E-12,,
,9.223008,-4.10E-12,,
,9.225008,-4.10E-12,,
,9.227008,-4.64E-12,,
,9.229008,-5.50E-12,,
,9.231008,-6.25E-12,,
,9.233008,-6.57E-12,,
,9.235008,-6.57E-12,,
,9.237008,-6.14E-12,,
,9.239008,-5.50E-12,,
,9.241008,-5.18E-12,,
,9.243008,-5.29E-12,,
,9.245008,-6.14E-12,,
,9.247008,-6.90E-12,,
,9.249008,-7.43E-12,,
,9.251008,-7.22E-12,,
,9.253008,-6.68E-12,,
,9.255008,-5.93E-12,,
,9.257008,-5.72E-12,,
,9.259008,-5.61E-12,,
,9.261008,-6.14E-12,,
,9.263008,-6.79E-12,,
,9.265008,-7.33E-12,,
,9.267008,-7.33E-12,,
,9.269008,-7.00E-12,,
,9.271008,-6.47E-12,,
,9.273008,-5.93E-12,,
,9.275008,-5.39E-12,,
,9.277008,-5.72E-12,,
,9.279008,-6.25E-12,,
,9.281008,-6.79E-12,,
,9.283008,-6.90E-12,,
,9.285008,-6.68E-12,,
,9.287008,-5.93E-12,,
,9.289008,-5.18E-12,,
,9.291008,-4.43E-12,,
,9.293008,-4.64E-12,,
,9.295008,-5.29E-12,,
,9.297008,-6.04E-12,,
,9.299008,-6.47E-12,,
,9.301008,-6.25E-12,,
,9.303008,-5.93E-12,,
,9.305008,-5.07E-12,,
,9.307008,-4.10E-12,,
,9.309008,-3.68E-12,,
,9.311008,-4.10E-12,,
,9.313008,-5.07E-12,,
,9.315008,-5.50E-12,,
,9.317008,-5.39E-12,,
,9.319008,-4.64E-12,,
,9.321008,-3.89E-12,,
,9.323008,-3.25E-12,,
,9.325008,-3.03E-12,,
,9.327008,-3.46E-12,,
,9.329008,-3.89E-12,,
,9.331008,-4.32E-12,,
,9.333008,-4.21E-12,,
,9.335008,-3.89E-12,,
,9.337008,-3.03E-12,,
,9.339008,-2.17E-12,,
,9.341008,-1.53E-12,,
,9.343008,-1.64E-12,,
,9.345008,-1.96E-12,,
,9.347008,-2.49E-12,,
,9.349008,-2.60E-12,,
,9.351008,-2.17E-12,,
,9.353008,-1.10E-12,,
,9.355008,8.20E-14,,
,9.357008,9.41E-13,,
,9.359008,1.48E-12,,
,9.361008,1.26E-12,,
,9.363008,7.26E-13,,
,9.365008,4.04E-13,,
,9.367008,6.19E-13,,
,9.369008,1.48E-12,,
,9.371008,2.23E-12,,
,9.373008,3.09E-12,,
,9.375008,3.62E-12,,
,9.377008,3.62E-12,,
,9.379008,2.98E-12,,
,9.381008,2.23E-12,,
,9.383008,2.12E-12,,
,9.385008,2.87E-12,,
,9.387008,3.84E-12,,
,9.389008,5.02E-12,,
,9.391008,5.66E-12,,
,9.393008,5.88E-12,,
,9.395008,5.24E-12,,
,9.397008,4.59E-12,,
,9.399008,4.16E-12,,
,9.401008,4.38E-12,,
,9.403008,5.02E-12,,
,9.405008,5.99E-12,,
,9.407008,6.63E-12,,
,9.409008,6.74E-12,,
,9.411008,6.31E-12,,
,9.413008,5.66E-12,,
,9.415008,5.13E-12,,
,9.417008,5.13E-12,,
,9.419008,5.66E-12,,
,9.421008,6.63E-12,,
,9.423008,7.27E-12,,
,9.425008,7.49E-12,,
,9.427008,7.17E-12,,
,9.429008,6.52E-12,,
,9.431008,5.88E-12,,
,9.433008,5.56E-12,,
,9.435008,5.99E-12,,
,9.437008,6.85E-12,,
,9.439008,8.03E-12,,
,9.441008,8.67E-12,,
,9.443008,8.56E-12,,
,9.445008,7.70E-12,,
,9.447008,7.06E-12,,
,9.449008,6.95E-12,,
,9.451008,7.38E-12,,
,9.453008,8.03E-12,,
,9.455008,8.78E-12,,
,9.457008,9.21E-12,,
,9.459008,9.21E-12,,
,9.461008,8.67E-12,,
,9.463008,8.13E-12,,
,9.465008,7.81E-12,,
,9.467008,8.13E-12,,
,9.469008,8.78E-12,,
,9.471008,9.64E-12,,
,9.473008,1.02E-11,,
,9.475008,1.05E-11,,
,9.477008,1.01E-11,,
,9.479008,9.42E-12,,
,9.481008,8.67E-12,,
,9.483008,8.46E-12,,
,9.485008,8.56E-12,,
,9.487008,8.89E-12,,
,9.489008,9.42E-12,,
,9.491008,9.64E-12,,
,9.493008,9.21E-12,,
,9.495008,8.13E-12,,
,9.497008,7.27E-12,,
,9.499008,6.85E-12,,
,9.501008,6.74E-12,,
,9.503008,6.95E-12,,
,9.505008,7.49E-12,,
,9.507008,7.70E-12,,
,9.509008,7.38E-12,,
,9.511008,6.20E-12,,
,9.513008,5.34E-12,,
,9.515008,4.48E-12,,
,9.517008,4.48E-12,,
,9.519008,4.48E-12,,
,9.521008,4.81E-12,,
,9.523008,4.81E-12,,
,9.525008,4.59E-12,,
,9.527008,3.84E-12,,
,9.529008,2.66E-12,,
,9.531008,1.59E-12,,
,9.533008,9.41E-13,,
,9.535008,1.05E-12,,
,9.537008,1.37E-12,,
,9.539008,1.80E-12,,
,9.541008,1.69E-12,,
,9.543008,1.16E-12,,
,9.545008,-2.53E-14,,
,9.547008,-1.31E-12,,
,9.549008,-2.49E-12,,
,9.551008,-2.71E-12,,
,9.553008,-2.39E-12,,
,9.555008,-1.74E-12,,
,9.557008,-1.74E-12,,
,9.559008,-2.28E-12,,
,9.561008,-3.25E-12,,
,9.563008,-4.32E-12,,
,9.565008,-5.07E-12,,
,9.567008,-5.50E-12,,
,9.569008,-5.29E-12,,
,9.571008,-4.64E-12,,
,9.573008,-4.00E-12,,
,9.575008,-4.10E-12,,
,9.577008,-4.96E-12,,
,9.579008,-6.04E-12,,
,9.581008,-6.68E-12,,
,9.583008,-6.68E-12,,
,9.585008,-6.47E-12,,
,9.587008,-5.93E-12,,
,9.589008,-5.29E-12,,
,9.591008,-4.96E-12,,
,9.593008,-4.96E-12,,
,9.595008,-5.29E-12,,
,9.597008,-5.50E-12,,
,9.599008,-5.82E-12,,
,9.601008,-5.82E-12,,
,9.603008,-5.29E-12,,
,9.605008,-4.21E-12,,
,9.607008,-3.25E-12,,
,9.609008,-2.82E-12,,
,9.611008,-3.14E-12,,
,9.613008,-3.57E-12,,
,9.615008,-3.57E-12,,
,9.617008,-3.14E-12,,
,9.619008,-2.39E-12,,
,9.621008,-1.53E-12,,
,9.623008,-4.55E-13,,
,9.625008,8.20E-14,,
,9.627008,8.20E-14,,
,9.629008,-2.40E-13,,
,9.631008,-2.40E-13,,
,9.633008,8.20E-14,,
,9.635008,9.41E-13,,
,9.637008,1.91E-12,,
,9.639008,2.98E-12,,
,9.641008,3.62E-12,,
,9.643008,3.84E-12,,
,9.645008,3.62E-12,,
,9.647008,3.41E-12,,
,9.649008,3.41E-12,,
,9.651008,4.05E-12,,
,9.653008,4.81E-12,,
,9.655008,5.77E-12,,
,9.657008,6.52E-12,,
,9.659008,6.95E-12,,
,9.661008,6.85E-12,,
,9.663008,6.31E-12,,
,9.665008,5.77E-12,,
,9.667008,5.88E-12,,
,9.669008,6.42E-12,,
,9.671008,7.49E-12,,
,9.673008,8.24E-12,,
,9.675008,8.78E-12,,
,9.677008,8.67E-12,,
,9.679008,8.03E-12,,
,9.681008,7.49E-12,,
,9.683008,7.27E-12,,
,9.685008,7.60E-12,,
,9.687008,8.24E-12,,
,9.689008,9.10E-12,,
,9.691008,9.64E-12,,
,9.693008,9.64E-12,,
,9.695008,8.99E-12,,
,9.697008,8.46E-12,,
,9.699008,8.35E-12,,
,9.701008,8.89E-12,,
,9.703008,9.74E-12,,
,9.705008,1.05E-11,,
,9.707008,1.10E-11,,
,9.709008,1.12E-11,,
,9.711008,1.11E-11,,
,9.713008,1.07E-11,,
,9.715008,1.06E-11,,
,9.717008,1.08E-11,,
,9.719008,1.16E-11,,
,9.721008,1.26E-11,,
,9.723008,1.36E-11,,
,9.725008,1.43E-11,,
,9.727008,1.41E-11,,
,9.729008,1.36E-11,,
,9.731008,1.31E-11,,
,9.733008,1.31E-11,,
,9.735008,1.38E-11,,
,9.737008,1.46E-11,,
,9.739008,1.55E-11,,
,9.741008,1.61E-11,,
,9.743008,1.65E-11,,
,9.745008,1.61E-11,,
,9.747008,1.58E-11,,
,9.749008,1.54E-11,,
,9.751008,1.59E-11,,
,9.753008,1.65E-11,,
,9.755008,1.75E-11,,
,9.757008,1.80E-11,,
,9.759008,1.81E-11,,
,9.761008,1.80E-11,,
,9.763008,1.77E-11,,
,9.765008,1.77E-11,,
,9.767008,1.80E-11,,
,9.769008,1.90E-11,,
,9.771008,2.02E-11,,
,9.773008,2.10E-11,,
,9.775008,2.16E-11,,
,9.777008,2.16E-11,,
,9.779008,2.10E-11,,
,9.781008,2.06E-11,,
,9.783008,2.06E-11,,
,9.785008,2.12E-11,,
,9.787008,2.21E-11,,
,9.789008,2.31E-11,,
,9.791008,2.38E-11,,
,9.793008,2.38E-11,,
,9.795008,2.31E-11,,
,9.797008,2.26E-11,,
,9.799008,2.26E-11,,
,9.801008,2.33E-11,,
,9.803008,2.39E-11,,
,9.805008,2.48E-11,,
,9.807008,2.54E-11,,
,9.809008,2.57E-11,,
,9.811008,2.54E-11,,
,9.813008,2.47E-11,,
,9.815008,2.41E-11,,
,9.817008,2.41E-11,,
,9.819008,2.49E-11,,
,9.821008,2.57E-11,,
,9.823008,2.65E-11,,
,9.825008,2.67E-11,,
,9.827008,2.65E-11,,
,9.829008,2.61E-11,,
,9.831008,2.55E-11,,
,9.833008,2.53E-11,,
,9.835008,2.56E-11,,
,9.837008,2.62E-11,,
,9.839008,2.69E-11,,
,9.841008,2.71E-11,,
,9.843008,2.69E-11,,
,9.845008,2.60E-11,,
,9.847008,2.51E-11,,
,9.849008,2.48E-11,,
,9.851008,2.51E-11,,
,9.853008,2.57E-11,,
,9.855008,2.65E-11,,
,9.857008,2.67E-11,,
,9.859008,2.64E-11,,
,9.861008,2.55E-11,,
,9.863008,2.46E-11,,
,9.865008,2.37E-11,,
,9.867008,2.34E-11,,
,9.869008,2.37E-11,,
,9.871008,2.42E-11,,
,9.873008,2.46E-11,,
,9.875008,2.45E-11,,
,9.877008,2.39E-11,,
,9.879008,2.31E-11,,
,9.881008,2.20E-11,,
,9.883008,2.13E-11,,
,9.885008,2.13E-11,,
,9.887008,2.18E-11,,
,9.889008,2.21E-11,,
,9.891008,2.19E-11,,
,9.893008,2.11E-11,,
,9.895008,1.99E-11,,
,9.897008,1.90E-11,,
,9.899008,1.82E-11,,
,9.901008,1.81E-11,,
,9.903008,1.80E-11,,
,9.905008,1.81E-11,,
,9.907008,1.81E-11,,
,9.909008,1.77E-11,,
,9.911008,1.68E-11,,
,9.913008,1.54E-11,,
,9.915008,1.46E-11,,
,9.917008,1.44E-11,,
,9.919008,1.47E-11,,
,9.921008,1.48E-11,,
,9.923008,1.49E-11,,
,9.925008,1.45E-11,,
,9.927008,1.38E-11,,
,9.929008,1.25E-11,,
,9.931008,1.16E-11,,
,9.933008,1.10E-11,,
,9.935008,1.10E-11,,
,9.937008,1.14E-11,,
,9.939008,1.17E-11,,
,9.941008,1.17E-11,,
,9.943008,1.11E-11,,
,9.945008,1.01E-11,,
,9.947008,9.21E-12,,
,9.949008,8.46E-12,,
,9.951008,8.35E-12,,
,9.953008,8.56E-12,,
,9.955008,8.89E-12,,
,9.957008,9.10E-12,,
,9.959008,8.67E-12,,
,9.961008,8.03E-12,,
,9.963008,6.85E-12,,
,9.965008,6.20E-12,,
,9.967008,5.77E-12,,
,9.969008,6.09E-12,,
,9.971008,6.31E-12,,
,9.973008,6.31E-12,,
,9.975008,5.88E-12,,
,9.977008,5.02E-12,,
,9.979008,3.95E-12,,
,9.981008,2.87E-12,,
,9.983008,2.23E-12,,
,9.985008,2.44E-12,,
,9.987008,2.66E-12,,
,9.989008,3.09E-12,,
,9.991008,2.98E-12,,
,9.993008,2.77E-12,,
,9.995008,1.80E-12,,
,9.997008,6.19E-13,,
,9.999008,-3.47E-13,,
,10.001008,-4.55E-13,,
,10.003008,-2.40E-13,,
,10.005008,8.20E-14,,
,10.007008,1.89E-13,,
,10.009008,-1.33E-13,,
,10.011008,-8.84E-13,,
,10.013008,-2.17E-12,,
,10.015008,-3.03E-12,,
,10.017008,-3.57E-12,,
,10.019008,-3.46E-12,,
,10.021008,-3.14E-12,,
,10.023008,-2.82E-12,,
,10.025008,-3.25E-12,,
,10.027008,-4.00E-12,,
,10.029008,-4.96E-12,,
,10.031008,-5.50E-12,,
,10.033008,-5.93E-12,,
,10.035008,-6.04E-12,,
,10.037008,-5.93E-12,,
,10.039008,-5.72E-12,,
,10.041008,-5.61E-12,,
,10.043008,-6.14E-12,,
,10.045008,-6.90E-12,,
,10.047008,-7.75E-12,,
,10.049008,-8.29E-12,,
,10.051008,-8.29E-12,,
,10.053008,-7.86E-12,,
,10.055008,-7.22E-12,,
,10.057008,-7.11E-12,,
,10.059008,-7.43E-12,,
,10.061008,-8.08E-12,,
,10.063008,-8.72E-12,,
,10.065008,-9.26E-12,,
,10.067008,-9.47E-12,,
,10.069008,-9.15E-12,,
,10.071008,-8.72E-12,,
,10.073008,-8.18E-12,,
,10.075008,-8.18E-12,,
,10.077008,-8.61E-12,,
,10.079008,-9.58E-12,,
,10.081008,-1.02E-11,,
,10.083008,-1.04E-11,,
,10.085008,-1.00E-11,,
,10.087008,-9.47E-12,,
,10.089008,-8.94E-12,,
,10.091008,-8.72E-12,,
,10.093008,-9.15E-12,,
,10.095008,-9.90E-12,,
,10.097008,-1.09E-11,,
,10.099008,-1.12E-11,,
,10.101008,-1.10E-11,,
,10.103008,-1.02E-11,,
,10.105008,-9.79E-12,,
,10.107008,-9.37E-12,,
,10.109008,-9.47E-12,,
,10.111008,-9.79E-12,,
,10.113008,-1.04E-11,,
,10.115008,-1.11E-11,,
,10.117008,-1.11E-11,,
,10.119008,-1.07E-11,,
,10.121008,-9.90E-12,,
,10.123008,-9.47E-12,,
,10.125008,-9.69E-12,,
,10.127008,-1.03E-11,,
,10.129008,-1.11E-11,,
,10.131008,-1.16E-11,,
,10.133008,-1.16E-11,,
,10.135008,-1.14E-11,,
,10.137008,-1.10E-11,,
,10.139008,-1.07E-11,,
,10.141008,-1.03E-11,,
,10.143008,-1.07E-11,,
,10.145008,-1.14E-11,,
,10.147008,-1.22E-11,,
,10.149008,-1.24E-11,,
,10.151008,-1.20E-11,,
,10.153008,-1.14E-11,,
,10.155008,-1.07E-11,,
,10.157008,-1.01E-11,,
,10.159008,-1.03E-11,,
,10.161008,-1.11E-11,,
,10.163008,-1.19E-11,,
,10.165008,-1.25E-11,,
,10.167008,-1.25E-11,,
,10.169008,-1.19E-11,,
,10.171008,-1.13E-11,,
,10.173008,-1.08E-11,,
,10.175008,-1.09E-11,,
,10.177008,-1.13E-11,,
,10.179008,-1.20E-11,,
,10.181008,-1.24E-11,,
,10.183008,-1.23E-11,,
,10.185008,-1.18E-11,,
,10.187008,-1.12E-11,,
,10.189008,-1.04E-11,,
,10.191008,-1.01E-11,,
,10.193008,-1.02E-11,,
,10.195008,-1.10E-11,,
,10.197008,-1.14E-11,,
,10.199008,-1.16E-11,,
,10.201008,-1.13E-11,,
,10.203008,-1.05E-11,,
,10.205008,-9.69E-12,,
,10.207008,-8.94E-12,,
,10.209008,-8.83E-12,,
,10.211008,-9.15E-12,,
,10.213008,-9.79E-12,,
,10.215008,-1.02E-11,,
,10.217008,-1.00E-11,,
,10.219008,-9.04E-12,,
,10.221008,-7.86E-12,,
,10.223008,-6.90E-12,,
,10.225008,-6.57E-12,,
,10.227008,-6.47E-12,,
,10.229008,-6.68E-12,,
,10.231008,-6.68E-12,,
,10.233008,-6.36E-12,,
,10.235008,-5.50E-12,,
,10.237008,-4.21E-12,,
,10.239008,-2.82E-12,,
,10.241008,-1.85E-12,,
,10.243008,-1.74E-12,,
,10.245008,-2.17E-12,,
,10.247008,-2.39E-12,,
,10.249008,-1.85E-12,,
,10.251008,-8.84E-13,,
,10.253008,6.19E-13,,
,10.255008,1.91E-12,,
,10.257008,3.09E-12,,
,10.259008,3.52E-12,,
,10.261008,3.62E-12,,
,10.263008,3.95E-12,,
,10.265008,4.16E-12,,
,10.267008,5.02E-12,,
,10.269008,5.88E-12,,
,10.271008,7.38E-12,,
,10.273008,8.89E-12,,
,10.275008,9.85E-12,,
,10.277008,1.03E-11,,
,10.279008,1.02E-11,,
,10.281008,1.05E-11,,
,10.283008,1.09E-11,,
,10.285008,1.19E-11,,
,10.287008,1.31E-11,,
,10.289008,1.47E-11,,
,10.291008,1.59E-11,,
,10.293008,1.63E-11,,
,10.295008,1.63E-11,,
,10.297008,1.63E-11,,
,10.299008,1.69E-11,,
,10.301008,1.82E-11,,
,10.303008,1.97E-11,,
,10.305008,2.12E-11,,
,10.307008,2.21E-11,,
,10.309008,2.25E-11,,
,10.311008,2.26E-11,,
,10.313008,2.27E-11,,
,10.315008,2.29E-11,,
,10.317008,2.37E-11,,
,10.319008,2.48E-11,,
,10.321008,2.64E-11,,
,10.323008,2.75E-11,,
,10.325008,2.83E-11,,
,10.327008,2.84E-11,,
,10.329008,2.86E-11,,
,10.331008,2.86E-11,,
,10.333008,2.93E-11,,
,10.335008,3.02E-11,,
,10.337008,3.15E-11,,
,10.339008,3.28E-11,,
,10.341008,3.38E-11,,
,10.343008,3.41E-11,,
,10.345008,3.40E-11,,
,10.347008,3.38E-11,,
,10.349008,3.42E-11,,
,10.351008,3.51E-11,,
,10.353008,3.65E-11,,
,10.355008,3.80E-11,,
,10.357008,3.93E-11,,
,10.359008,4.00E-11,,
,10.361008,4.02E-11,,
,10.363008,4.03E-11,,
,10.365008,4.07E-11,,
,10.367008,4.13E-11,,
,10.369008,4.25E-11,,
,10.371008,4.38E-11,,
,10.373008,4.53E-11,,
,10.375008,4.61E-11,,
,10.377008,4.66E-11,,
,10.379008,4.67E-11,,
,10.381008,4.70E-11,,
,10.383008,4.80E-11,,
,10.385008,4.91E-11,,
,10.387008,5.09E-11,,
,10.389008,5.21E-11,,
,10.391008,5.32E-11,,
,10.393008,5.33E-11,,
,10.395008,5.33E-11,,
,10.397008,5.34E-11,,
,10.399008,5.40E-11,,
,10.401008,5.49E-11,,
,10.403008,5.63E-11,,
,10.405008,5.79E-11,,
,10.407008,5.92E-11,,
,10.409008,6.00E-11,,
,10.411008,6.00E-11,,
,10.413008,6.00E-11,,
,10.415008,6.03E-11,,
,10.417008,6.14E-11,,
,10.419008,6.26E-11,,
,10.421008,6.39E-11,,
,10.423008,6.51E-11,,
,10.425008,6.60E-11,,
,10.427008,6.64E-11,,
,10.429008,6.64E-11,,
,10.431008,6.68E-11,,
,10.433008,6.74E-11,,
,10.435008,6.86E-11,,
,10.437008,7.04E-11,,
,10.439008,7.18E-11,,
,10.441008,7.29E-11,,
,10.443008,7.30E-11,,
,10.445008,7.33E-11,,
,10.447008,7.36E-11,,
,10.449008,7.45E-11,,
,10.451008,7.56E-11,,
,10.453008,7.67E-11,,
,10.455008,7.81E-11,,
,10.457008,7.93E-11,,
,10.459008,8.03E-11,,
,10.461008,8.07E-11,,
,10.463008,8.09E-11,,
,10.465008,8.14E-11,,
,10.467008,8.22E-11,,
,10.469008,8.37E-11,,
,10.471008,8.54E-11,,
,10.473008,8.71E-11,,
,10.475008,8.82E-11,,
,10.477008,8.90E-11,,
,10.479008,8.92E-11,,
,10.481008,8.97E-11,,
,10.483008,9.04E-11,,
,10.485008,9.17E-11,,
,10.487008,9.34E-11,,
,10.489008,9.51E-11,,
,10.491008,9.62E-11,,
,10.493008,9.66E-11,,
,10.495008,9.69E-11,,
,10.497008,9.73E-11,,
,10.499008,9.83E-11,,
,10.501008,9.97E-11,,
,10.503008,1.02E-10,,
,10.505008,1.03E-10,,
,10.507008,1.05E-10,,
,10.509008,1.06E-10,,
,10.511008,1.06E-10,,
,10.513008,1.06E-10,,
,10.515008,1.07E-10,,
,10.517008,1.08E-10,,
,10.519008,1.09E-10,,
,10.521008,1.11E-10,,
,10.523008,1.13E-10,,
,10.525008,1.14E-10,,
,10.527008,1.14E-10,,
,10.529008,1.15E-10,,
,10.531008,1.15E-10,,
,10.533008,1.16E-10,,
,10.535008,1.17E-10,,
,10.537008,1.18E-10,,
,10.539008,1.20E-10,,
,10.541008,1.21E-10,,
,10.543008,1.22E-10,,
,10.545008,1.22E-10,,
,10.547008,1.22E-10,,
,10.549008,1.22E-10,,
,10.551008,1.23E-10,,
,10.553008,1.25E-10,,
,10.555008,1.26E-10,,
,10.557008,1.27E-10,,
,10.559008,1.28E-10,,
,10.561008,1.28E-10,,
,10.563008,1.28E-10,,
,10.565008,1.28E-10,,
,10.567008,1.29E-10,,
,10.569008,1.30E-10,,
,10.571008,1.31E-10,,
,10.573008,1.32E-10,,
,10.575008,1.32E-10,,
,10.577008,1.33E-10,,
,10.579008,1.33E-10,,
,10.581008,1.33E-10,,
,10.583008,1.33E-10,,
,10.585008,1.34E-10,,
,10.587008,1.35E-10,,
,10.589008,1.37E-10,,
,10.591008,1.37E-10,,
,10.593008,1.37E-10,,
,10.595008,1.37E-10,,
,10.597008,1.37E-10,,
,10.599008,1.37E-10,,
,10.601008,1.37E-10,,
,10.603008,1.38E-10,,
,10.605008,1.40E-10,,
,10.607008,1.40E-10,,
,10.609008,1.41E-10,,
,10.611008,1.40E-10,,
,10.613008,1.40E-10,,
,10.615008,1.40E-10,,
,10.617008,1.40E-10,,
,10.619008,1.41E-10,,
,10.621008,1.42E-10,,
,10.623008,1.42E-10,,
,10.625008,1.43E-10,,
,10.627008,1.43E-10,,
,10.629008,1.43E-10,,
,10.631008,1.42E-10,,
,10.633008,1.42E-10,,
,10.635008,1.43E-10,,
,10.637008,1.44E-10,,
,10.639008,1.44E-10,,
,10.641008,1.45E-10,,
,10.643008,1.44E-10,,
,10.645008,1.43E-10,,
,10.647008,1.43E-10,,
,10.649008,1.43E-10,,
,10.651008,1.43E-10,,
,10.653008,1.44E-10,,
,10.655008,1.45E-10,,
,10.657008,1.45E-10,,
,10.659008,1.46E-10,,
,10.661008,1.45E-10,,
,10.663008,1.44E-10,,
,10.665008,1.44E-10,,
,10.667008,1.44E-10,,
,10.669008,1.44E-10,,
,10.671008,1.45E-10,,
,10.673008,1.45E-10,,
,10.675008,1.45E-10,,
,10.677008,1.45E-10,,
,10.679008,1.44E-10,,
,10.681008,1.44E-10,,
,10.683008,1.43E-10,,
,10.685008,1.44E-10,,
,10.687008,1.44E-10,,
,10.689008,1.45E-10,,
,10.691008,1.45E-10,,
,10.693008,1.44E-10,,
,10.695008,1.43E-10,,
,10.697008,1.42E-10,,
,10.699008,1.41E-10,,
,10.701008,1.41E-10,,
,10.703008,1.41E-10,,
,10.705008,1.42E-10,,
,10.707008,1.42E-10,,
,10.709008,1.41E-10,,
,10.711008,1.41E-10,,
,10.713008,1.40E-10,,
,10.715008,1.39E-10,,
,10.717008,1.38E-10,,
,10.719008,1.38E-10,,
,10.721008,1.39E-10,,
,10.723008,1.39E-10,,
,10.725008,1.39E-10,,
,10.727008,1.38E-10,,
,10.729008,1.37E-10,,
,10.731008,1.36E-10,,
,10.733008,1.35E-10,,
,10.735008,1.35E-10,,
,10.737008,1.35E-10,,
,10.739008,1.36E-10,,
,10.741008,1.36E-10,,
,10.743008,1.35E-10,,
,10.745008,1.34E-10,,
,10.747008,1.33E-10,,
,10.749008,1.32E-10,,
,10.751008,1.32E-10,,
,10.753008,1.32E-10,,
,10.755008,1.32E-10,,
,10.757008,1.32E-10,,
,10.759008,1.32E-10,,
,10.761008,1.31E-10,,
,10.763008,1.30E-10,,
,10.765008,1.29E-10,,
,10.767008,1.29E-10,,
,10.769008,1.29E-10,,
,10.771008,1.30E-10,,
,10.773008,1.30E-10,,
,10.775008,1.29E-10,,
,10.777008,1.28E-10,,
,10.779008,1.27E-10,,
,10.781008,1.26E-10,,
,10.783008,1.26E-10,,
,10.785008,1.26E-10,,
,10.787008,1.26E-10,,
,10.789008,1.26E-10,,
,10.791008,1.26E-10,,
,10.793008,1.25E-10,,
,10.795008,1.24E-10,,
,10.797008,1.23E-10,,
,10.799008,1.22E-10,,
,10.801008,1.22E-10,,
,10.803008,1.22E-10,,
,10.805008,1.22E-10,,
,10.807008,1.22E-10,,
,10.809008,1.21E-10,,
,10.811008,1.20E-10,,
,10.813008,1.19E-10,,
,10.815008,1.18E-10,,
,10.817008,1.18E-10,,
,10.819008,1.18E-10,,
,10.821008,1.18E-10,,
,10.823008,1.18E-10,,
,10.825008,1.17E-10,,
,10.827008,1.15E-10,,
,10.829008,1.14E-10,,
,10.831008,1.13E-10,,
,10.833008,1.12E-10,,
,10.835008,1.12E-10,,
,10.837008,1.12E-10,,
,10.839008,1.12E-10,,
,10.841008,1.11E-10,,
,10.843008,1.10E-10,,
,10.845008,1.09E-10,,
,10.847008,1.08E-10,,
,10.849008,1.07E-10,,
,10.851008,1.06E-10,,
,10.853008,1.06E-10,,
,10.855008,1.06E-10,,
,10.857008,1.06E-10,,
,10.859008,1.05E-10,,
,10.861008,1.04E-10,,
,10.863008,1.02E-10,,
,10.865008,1.01E-10,,
,10.867008,1.00E-10,,
,10.869008,1.01E-10,,
,10.871008,1.01E-10,,
,10.873008,1.01E-10,,
,10.875008,1.00E-10,,
,10.877008,9.95E-11,,
,10.879008,9.82E-11,,
,10.881008,9.72E-11,,
,10.883008,9.67E-11,,
,10.885008,9.66E-11,,
,10.887008,9.66E-11,,
,10.889008,9.66E-11,,
,10.891008,9.64E-11,,
,10.893008,9.55E-11,,
,10.895008,9.43E-11,,
,10.897008,9.32E-11,,
,10.899008,9.26E-11,,
,10.901008,9.24E-11,,
,10.903008,9.23E-11,,
,10.905008,9.27E-11,,
,10.907008,9.26E-11,,
,10.909008,9.22E-11,,
,10.911008,9.08E-11,,
,10.913008,8.95E-11,,
,10.915008,8.87E-11,,
,10.917008,8.83E-11,,
,10.919008,8.83E-11,,
,10.921008,8.84E-11,,
,10.923008,8.85E-11,,
,10.925008,8.80E-11,,
,10.927008,8.70E-11,,
,10.929008,8.55E-11,,
,10.931008,8.47E-11,,
,10.933008,8.42E-11,,
,10.935008,8.44E-11,,
,10.937008,8.46E-11,,
,10.939008,8.50E-11,,
,10.941008,8.49E-11,,
,10.943008,8.44E-11,,
,10.945008,8.29E-11,,
,10.947008,8.19E-11,,
,10.949008,8.10E-11,,
,10.951008,8.11E-11,,
,10.953008,8.14E-11,,
,10.955008,8.18E-11,,
,10.957008,8.17E-11,,
,10.959008,8.11E-11,,
,10.961008,8.00E-11,,
,10.963008,7.90E-11,,
,10.965008,7.80E-11,,
,10.967008,7.78E-11,,
,10.969008,7.79E-11,,
,10.971008,7.85E-11,,
,10.973008,7.87E-11,,
,10.975008,7.82E-11,,
,10.977008,7.72E-11,,
,10.979008,7.59E-11,,
,10.981008,7.49E-11,,
,10.983008,7.44E-11,,
,10.985008,7.44E-11,,
,10.987008,7.48E-11,,
,10.989008,7.53E-11,,
,10.991008,7.54E-11,,
,10.993008,7.48E-11,,
,10.995008,7.35E-11,,
,10.997008,7.23E-11,,
,10.999008,7.17E-11,,
,11.001008,7.18E-11,,
,11.003008,7.23E-11,,
,11.005008,7.28E-11,,
,11.007008,7.30E-11,,
,11.009008,7.25E-11,,
,11.011008,7.16E-11,,
,11.013008,7.05E-11,,
,11.015008,6.98E-11,,
,11.017008,7.00E-11,,
,11.019008,7.02E-11,,
,11.021008,7.06E-11,,
,11.023008,7.09E-11,,
,11.025008,7.09E-11,,
,11.027008,7.03E-11,,
,11.029008,6.91E-11,,
,11.031008,6.84E-11,,
,11.033008,6.84E-11,,
,11.035008,6.87E-11,,
,11.037008,6.90E-11,,
,11.039008,6.96E-11,,
,11.041008,6.96E-11,,
,11.043008,6.94E-11,,
,11.045008,6.86E-11,,
,11.047008,6.79E-11,,
,11.049008,6.74E-11,,
,11.051008,6.72E-11,,
,11.053008,6.75E-11,,
,11.055008,6.80E-11,,
,11.057008,6.81E-11,,
,11.059008,6.78E-11,,
,11.061008,6.70E-11,,
,11.063008,6.61E-11,,
,11.065008,6.56E-11,,
,11.067008,6.57E-11,,
,11.069008,6.62E-11,,
,11.071008,6.69E-11,,
,11.073008,6.71E-11,,
,11.075008,6.70E-11,,
,11.077008,6.61E-11,,
,11.079008,6.54E-11,,
,11.081008,6.46E-11,,
,11.083008,6.46E-11,,
,11.085008,6.49E-11,,
,11.087008,6.55E-11,,
,11.089008,6.58E-11,,
,11.091008,6.59E-11,,
,11.093008,6.56E-11,,
,11.095008,6.48E-11,,
,11.097008,6.41E-11,,
,11.099008,6.39E-11,,
,11.101008,6.42E-11,,
,11.103008,6.49E-11,,
,11.105008,6.54E-11,,
,11.107008,6.58E-11,,
,11.109008,6.54E-11,,
,11.111008,6.48E-11,,
,11.113008,6.39E-11,,
,11.115008,6.34E-11,,
,11.117008,6.33E-11,,
,11.119008,6.41E-11,,
,11.121008,6.45E-11,,
,11.123008,6.50E-11,,
,11.125008,6.46E-11,,
,11.127008,6.42E-11,,
,11.129008,6.33E-11,,
,11.131008,6.26E-11,,
,11.133008,6.21E-11,,
,11.135008,6.21E-11,,
,11.137008,6.27E-11,,
,11.139008,6.30E-11,,
,11.141008,6.28E-11,,
,11.143008,6.20E-11,,
,11.145008,6.12E-11,,
,11.147008,6.04E-11,,
,11.149008,5.99E-11,,
,11.151008,5.97E-11,,
,11.153008,6.00E-11,,
,11.155008,6.05E-11,,
,11.157008,6.06E-11,,
,11.159008,6.03E-11,,
,11.161008,5.96E-11,,
,11.163008,5.87E-11,,
,11.165008,5.79E-11,,
,11.167008,5.74E-11,,
,11.169008,5.75E-11,,
,11.171008,5.78E-11,,
,11.173008,5.81E-11,,
,11.175008,5.79E-11,,
,11.177008,5.72E-11,,
,11.179008,5.61E-11,,
,11.181008,5.53E-11,,
,11.183008,5.47E-11,,
,11.185008,5.48E-11,,
,11.187008,5.50E-11,,
,11.189008,5.55E-11,,
,11.191008,5.54E-11,,
,11.193008,5.48E-11,,
,11.195008,5.37E-11,,
,11.197008,5.29E-11,,
,11.199008,5.24E-11,,
,11.201008,5.24E-11,,
,11.203008,5.27E-11,,
,11.205008,5.31E-11,,
,11.207008,5.33E-11,,
,11.209008,5.29E-11,,
,11.211008,5.20E-11,,
,11.213008,5.12E-11,,
,11.215008,5.06E-11,,
,11.217008,5.08E-11,,
,11.219008,5.13E-11,,
,11.221008,5.19E-11,,
,11.223008,5.21E-11,,
,11.225008,5.19E-11,,
,11.227008,5.13E-11,,
,11.229008,5.05E-11,,
,11.231008,5.01E-11,,
,11.233008,5.01E-11,,
,11.235008,5.06E-11,,
,11.237008,5.14E-11,,
,11.239008,5.19E-11,,
,11.241008,5.20E-11,,
,11.243008,5.16E-11,,
,11.245008,5.09E-11,,
,11.247008,5.01E-11,,
,11.249008,4.96E-11,,
,11.251008,4.98E-11,,
,11.253008,5.04E-11,,
,11.255008,5.14E-11,,
,11.257008,5.21E-11,,
,11.259008,5.23E-11,,
,11.261008,5.18E-11,,
,11.263008,5.13E-11,,
,11.265008,5.10E-11,,
,11.267008,5.11E-11,,
,11.269008,5.14E-11,,
,11.271008,5.20E-11,,
,11.273008,5.27E-11,,
,11.275008,5.27E-11,,
,11.277008,5.23E-11,,
,11.279008,5.13E-11,,
,11.281008,5.10E-11,,
,11.283008,5.11E-11,,
,11.285008,5.18E-11,,
,11.287008,5.26E-11,,
,11.289008,5.32E-11,,
,11.291008,5.34E-11,,
,11.293008,5.31E-11,,
,11.295008,5.25E-11,,
,11.297008,5.16E-11,,
,11.299008,5.12E-11,,
,11.301008,5.14E-11,,
,11.303008,5.21E-11,,
,11.305008,5.30E-11,,
,11.307008,5.32E-11,,
,11.309008,5.29E-11,,
