5/8/2019, 8:22:12 PM ,,,
 Current Sensitivity ,1.00E-09,,,
 This file comes from It only measurement ,0.00E+00,,,
 Sampling rate ,500,,,
 Number of samples per channel ,-1,,,
 No filter from Labview , , , ,
 , ,,,
 ***End_of_Header*** ,,,,
 , Time , Current , Filtered Current , 
,0.000994,-1.76E-12,,
,0.002994,-3.09E-12,,
,0.004994,-4.86E-12,,
,0.006994,-4.75E-12,,
,0.008994,-5.50E-12,,
,0.010994,-5.82E-12,,
,0.012994,-6.36E-12,,
,0.014994,-6.25E-12,,
,0.016994,-5.93E-12,,
,0.018994,-5.50E-12,,
,0.020994,-4.96E-12,,
,0.022994,-4.75E-12,,
,0.024994,-4.75E-12,,
,0.026994,-5.39E-12,,
,0.028994,-5.93E-12,,
,0.030994,-6.25E-12,,
,0.032994,-6.04E-12,,
,0.034994,-5.39E-12,,
,0.036994,-4.75E-12,,
,0.038994,-4.32E-12,,
,0.040994,-4.53E-12,,
,0.042994,-5.07E-12,,
,0.044994,-5.82E-12,,
,0.046994,-6.36E-12,,
,0.048994,-6.25E-12,,
,0.050994,-5.82E-12,,
,0.052994,-5.07E-12,,
,0.054994,-4.75E-12,,
,0.056994,-4.64E-12,,
,0.058994,-4.86E-12,,
,0.060994,-5.39E-12,,
,0.062994,-5.82E-12,,
,0.064994,-6.04E-12,,
,0.066994,-5.50E-12,,
,0.068994,-4.96E-12,,
,0.070994,-4.43E-12,,
,0.072994,-4.21E-12,,
,0.074994,-4.10E-12,,
,0.076994,-4.53E-12,,
,0.078994,-5.07E-12,,
,0.080994,-5.29E-12,,
,0.082994,-5.07E-12,,
,0.084994,-4.43E-12,,
,0.086994,-3.89E-12,,
,0.088994,-3.46E-12,,
,0.090994,-3.68E-12,,
,0.092994,-4.21E-12,,
,0.094994,-4.86E-12,,
,0.096994,-5.07E-12,,
,0.098994,-4.96E-12,,
,0.100994,-4.64E-12,,
,0.102994,-3.89E-12,,
,0.104994,-3.35E-12,,
,0.106994,-3.25E-12,,
,0.108994,-3.68E-12,,
,0.110994,-4.21E-12,,
,0.112994,-4.53E-12,,
,0.114994,-4.64E-12,,
,0.116994,-4.21E-12,,
,0.118994,-3.57E-12,,
,0.120994,-3.03E-12,,
,0.122994,-3.03E-12,,
,0.124994,-3.25E-12,,
,0.126994,-3.78E-12,,
,0.128994,-4.21E-12,,
,0.130994,-4.64E-12,,
,0.132994,-4.64E-12,,
,0.134994,-4.00E-12,,
,0.136994,-3.35E-12,,
,0.138994,-2.92E-12,,
,0.140994,-3.46E-12,,
,0.142994,-4.00E-12,,
,0.144994,-4.86E-12,,
,0.146994,-5.18E-12,,
,0.148994,-5.07E-12,,
,0.150994,-4.43E-12,,
,0.152994,-3.89E-12,,
,0.154994,-3.57E-12,,
,0.156994,-3.78E-12,,
,0.158994,-4.21E-12,,
,0.160994,-5.18E-12,,
,0.162994,-5.82E-12,,
,0.164994,-6.14E-12,,
,0.166994,-5.93E-12,,
,0.168994,-5.50E-12,,
,0.170994,-4.96E-12,,
,0.172994,-4.75E-12,,
,0.174994,-5.29E-12,,
,0.176994,-6.04E-12,,
,0.178994,-6.90E-12,,
,0.180994,-7.00E-12,,
,0.182994,-6.90E-12,,
,0.184994,-6.25E-12,,
,0.186994,-5.82E-12,,
,0.188994,-5.82E-12,,
,0.190994,-6.25E-12,,
,0.192994,-6.68E-12,,
,0.194994,-7.33E-12,,
,0.196994,-7.65E-12,,
,0.198994,-7.86E-12,,
,0.200994,-7.54E-12,,
,0.202994,-7.33E-12,,
,0.204994,-7.00E-12,,
,0.206994,-7.00E-12,,
,0.208994,-7.22E-12,,
,0.210994,-7.75E-12,,
,0.212994,-8.18E-12,,
,0.214994,-8.40E-12,,
,0.216994,-8.18E-12,,
,0.218994,-7.54E-12,,
,0.220994,-7.00E-12,,
,0.222994,-6.68E-12,,
,0.224994,-7.00E-12,,
,0.226994,-7.43E-12,,
,0.228994,-7.86E-12,,
,0.230994,-8.08E-12,,
,0.232994,-7.86E-12,,
,0.234994,-7.43E-12,,
,0.236994,-6.57E-12,,
,0.238994,-6.25E-12,,
,0.240994,-6.36E-12,,
,0.242994,-7.22E-12,,
,0.244994,-7.75E-12,,
,0.246994,-8.08E-12,,
,0.248994,-7.75E-12,,
,0.250994,-7.22E-12,,
,0.252994,-6.57E-12,,
,0.254994,-6.14E-12,,
,0.256994,-6.04E-12,,
,0.258994,-6.47E-12,,
,0.260994,-6.79E-12,,
,0.262994,-7.22E-12,,
,0.264994,-7.11E-12,,
,0.266994,-6.90E-12,,
,0.268994,-6.04E-12,,
,0.270994,-5.61E-12,,
,0.272994,-5.18E-12,,
,0.274994,-5.82E-12,,
,0.276994,-6.25E-12,,
,0.278994,-6.79E-12,,
,0.280994,-6.68E-12,,
,0.282994,-6.36E-12,,
,0.284994,-5.82E-12,,
,0.286994,-5.29E-12,,
,0.288994,-4.75E-12,,
,0.290994,-4.75E-12,,
,0.292994,-4.96E-12,,
,0.294994,-5.50E-12,,
,0.296994,-5.61E-12,,
,0.298994,-5.50E-12,,
,0.300994,-5.07E-12,,
,0.302994,-4.43E-12,,
,0.304994,-3.89E-12,,
,0.306994,-3.57E-12,,
,0.308994,-3.78E-12,,
,0.310994,-4.10E-12,,
,0.312994,-4.43E-12,,
,0.314994,-4.43E-12,,
,0.316994,-3.89E-12,,
,0.318994,-3.25E-12,,
,0.320994,-2.60E-12,,
,0.322994,-2.60E-12,,
,0.324994,-2.60E-12,,
,0.326994,-3.14E-12,,
,0.328994,-3.35E-12,,
,0.330994,-3.46E-12,,
,0.332994,-3.03E-12,,
,0.334994,-2.39E-12,,
,0.336994,-1.74E-12,,
,0.338994,-1.42E-12,,
,0.340994,-1.31E-12,,
,0.342994,-2.07E-12,,
,0.344994,-2.60E-12,,
,0.346994,-3.03E-12,,
,0.348994,-2.39E-12,,
,0.350994,-1.53E-12,,
,0.352994,-4.55E-13,,
,0.354994,-2.53E-14,,
,0.356994,8.20E-14,,
,0.358994,-4.55E-13,,
,0.360994,-9.92E-13,,
,0.362994,-1.53E-12,,
,0.364994,-1.42E-12,,
,0.366994,-9.92E-13,,
,0.368994,-3.47E-13,,
,0.370994,2.97E-13,,
,0.372994,5.11E-13,,
,0.374994,2.97E-13,,
,0.376994,-2.40E-13,,
,0.378994,-6.69E-13,,
,0.380994,-7.77E-13,,
,0.382994,-5.62E-13,,
,0.384994,8.20E-14,,
,0.386994,7.26E-13,,
,0.388994,1.26E-12,,
,0.390994,1.37E-12,,
,0.392994,1.26E-12,,
,0.394994,7.26E-13,,
,0.396994,5.11E-13,,
,0.398994,7.26E-13,,
,0.400994,1.26E-12,,
,0.402994,1.59E-12,,
,0.404994,2.12E-12,,
,0.406994,2.01E-12,,
,0.408994,1.80E-12,,
,0.410994,9.41E-13,,
,0.412994,7.26E-13,,
,0.414994,9.41E-13,,
,0.416994,1.16E-12,,
,0.418994,1.59E-12,,
,0.420994,2.01E-12,,
,0.422994,2.34E-12,,
,0.424994,2.01E-12,,
,0.426994,1.16E-12,,
,0.428994,5.11E-13,,
,0.430994,2.97E-13,,
,0.432994,6.19E-13,,
,0.434994,1.26E-12,,
,0.436994,2.01E-12,,
,0.438994,2.34E-12,,
,0.440994,2.01E-12,,
,0.442994,1.26E-12,,
,0.444994,5.11E-13,,
,0.446994,1.89E-13,,
,0.448994,4.04E-13,,
,0.450994,9.41E-13,,
,0.452994,1.59E-12,,
,0.454994,1.91E-12,,
,0.456994,1.69E-12,,
,0.458994,1.05E-12,,
,0.460994,8.20E-14,,
,0.462994,-5.62E-13,,
,0.464994,-5.62E-13,,
,0.466994,-1.33E-13,,
,0.468994,7.26E-13,,
,0.470994,1.05E-12,,
,0.472994,1.05E-12,,
,0.474994,5.11E-13,,
,0.476994,-3.47E-13,,
,0.478994,-8.84E-13,,
,0.480994,-1.21E-12,,
,0.482994,-8.84E-13,,
,0.484994,-5.62E-13,,
,0.486994,-2.40E-13,,
,0.488994,-1.33E-13,,
,0.490994,-5.62E-13,,
,0.492994,-9.92E-13,,
,0.494994,-1.74E-12,,
,0.496994,-2.07E-12,,
,0.498994,-2.28E-12,,
,0.500994,-1.85E-12,,
,0.502994,-1.31E-12,,
,0.504994,-1.31E-12,,
,0.506994,-1.53E-12,,
,0.508994,-2.17E-12,,
,0.510994,-2.60E-12,,
,0.512994,-3.14E-12,,
,0.514994,-3.35E-12,,
,0.516994,-3.14E-12,,
,0.518994,-2.82E-12,,
,0.520994,-2.60E-12,,
,0.522994,-2.49E-12,,
,0.524994,-2.82E-12,,
,0.526994,-3.25E-12,,
,0.528994,-3.89E-12,,
,0.530994,-4.21E-12,,
,0.532994,-4.21E-12,,
,0.534994,-3.68E-12,,
,0.536994,-3.14E-12,,
,0.538994,-2.82E-12,,
,0.540994,-3.14E-12,,
,0.542994,-3.68E-12,,
,0.544994,-4.21E-12,,
,0.546994,-4.64E-12,,
,0.548994,-4.64E-12,,
,0.550994,-4.21E-12,,
,0.552994,-3.35E-12,,
,0.554994,-2.92E-12,,
,0.556994,-2.92E-12,,
,0.558994,-3.46E-12,,
,0.560994,-4.10E-12,,
,0.562994,-4.64E-12,,
,0.564994,-4.43E-12,,
,0.566994,-4.00E-12,,
,0.568994,-3.25E-12,,
,0.570994,-2.92E-12,,
,0.572994,-2.82E-12,,
,0.574994,-3.25E-12,,
,0.576994,-4.00E-12,,
,0.578994,-4.64E-12,,
,0.580994,-4.75E-12,,
,0.582994,-4.53E-12,,
,0.584994,-3.89E-12,,
,0.586994,-3.25E-12,,
,0.588994,-2.92E-12,,
,0.590994,-2.82E-12,,
,0.592994,-3.46E-12,,
,0.594994,-4.00E-12,,
,0.596994,-4.53E-12,,
,0.598994,-4.64E-12,,
,0.600994,-4.21E-12,,
,0.602994,-3.89E-12,,
,0.604994,-3.46E-12,,
,0.606994,-3.46E-12,,
,0.608994,-3.89E-12,,
,0.610994,-4.43E-12,,
,0.612994,-5.18E-12,,
,0.614994,-5.29E-12,,
,0.616994,-5.07E-12,,
,0.618994,-4.43E-12,,
,0.620994,-4.10E-12,,
,0.622994,-4.00E-12,,
,0.624994,-4.32E-12,,
,0.626994,-4.86E-12,,
,0.628994,-5.39E-12,,
,0.630994,-5.93E-12,,
,0.632994,-5.50E-12,,
,0.634994,-5.39E-12,,
,0.636994,-4.75E-12,,
,0.638994,-4.96E-12,,
,0.640994,-4.96E-12,,
,0.642994,-5.61E-12,,
,0.644994,-6.14E-12,,
,0.646994,-6.68E-12,,
,0.648994,-6.90E-12,,
,0.650994,-6.57E-12,,
,0.652994,-6.04E-12,,
,0.654994,-5.72E-12,,
,0.656994,-6.04E-12,,
,0.658994,-6.79E-12,,
,0.660994,-7.54E-12,,
,0.662994,-7.75E-12,,
,0.664994,-7.86E-12,,
,0.666994,-7.54E-12,,
,0.668994,-7.33E-12,,
,0.670994,-7.11E-12,,
,0.672994,-6.90E-12,,
,0.674994,-7.33E-12,,
,0.676994,-7.86E-12,,
,0.678994,-8.83E-12,,
,0.680994,-9.04E-12,,
,0.682994,-8.94E-12,,
,0.684994,-8.29E-12,,
,0.686994,-7.97E-12,,
,0.688994,-7.86E-12,,
,0.690994,-8.40E-12,,
,0.692994,-9.04E-12,,
,0.694994,-9.79E-12,,
,0.696994,-1.02E-11,,
,0.698994,-1.01E-11,,
,0.700994,-9.79E-12,,
,0.702994,-9.47E-12,,
,0.704994,-9.47E-12,,
,0.706994,-9.69E-12,,
,0.708994,-1.01E-11,,
,0.710994,-1.05E-11,,
,0.712994,-1.10E-11,,
,0.714994,-1.11E-11,,
,0.716994,-1.11E-11,,
,0.718994,-1.07E-11,,
,0.720994,-1.03E-11,,
,0.722994,-1.03E-11,,
,0.724994,-1.08E-11,,
,0.726994,-1.14E-11,,
,0.728994,-1.18E-11,,
,0.730994,-1.24E-11,,
,0.732994,-1.24E-11,,
,0.734994,-1.23E-11,,
,0.736994,-1.16E-11,,
,0.738994,-1.12E-11,,
,0.740994,-1.13E-11,,
,0.742994,-1.19E-11,,
,0.744994,-1.27E-11,,
,0.746994,-1.30E-11,,
,0.748994,-1.30E-11,,
,0.750994,-1.26E-11,,
,0.752994,-1.22E-11,,
,0.754994,-1.18E-11,,
,0.756994,-1.19E-11,,
,0.758994,-1.25E-11,,
,0.760994,-1.30E-11,,
,0.762994,-1.36E-11,,
,0.764994,-1.33E-11,,
,0.766994,-1.29E-11,,
,0.768994,-1.25E-11,,
,0.770994,-1.20E-11,,
,0.772994,-1.18E-11,,
,0.774994,-1.20E-11,,
,0.776994,-1.27E-11,,
,0.778994,-1.33E-11,,
,0.780994,-1.33E-11,,
,0.782994,-1.30E-11,,
,0.784994,-1.24E-11,,
,0.786994,-1.18E-11,,
,0.788994,-1.15E-11,,
,0.790994,-1.16E-11,,
,0.792994,-1.20E-11,,
,0.794994,-1.29E-11,,
,0.796994,-1.31E-11,,
,0.798994,-1.29E-11,,
,0.800994,-1.22E-11,,
,0.802994,-1.16E-11,,
,0.804994,-1.13E-11,,
,0.806994,-1.11E-11,,
,0.808994,-1.13E-11,,
,0.810994,-1.18E-11,,
,0.812994,-1.23E-11,,
,0.814994,-1.22E-11,,
,0.816994,-1.15E-11,,
,0.818994,-1.09E-11,,
,0.820994,-1.05E-11,,
,0.822994,-1.04E-11,,
,0.824994,-1.05E-11,,
,0.826994,-1.10E-11,,
,0.828994,-1.13E-11,,
,0.830994,-1.14E-11,,
,0.832994,-1.11E-11,,
,0.834994,-1.04E-11,,
,0.836994,-9.69E-12,,
,0.838994,-9.15E-12,,
,0.840994,-9.15E-12,,
,0.842994,-9.58E-12,,
,0.844994,-1.00E-11,,
,0.846994,-1.02E-11,,
,0.848994,-1.00E-11,,
,0.850994,-9.58E-12,,
,0.852994,-9.04E-12,,
,0.854994,-8.51E-12,,
,0.856994,-8.29E-12,,
,0.858994,-8.40E-12,,
,0.860994,-8.83E-12,,
,0.862994,-9.26E-12,,
,0.864994,-9.04E-12,,
,0.866994,-8.72E-12,,
,0.868994,-7.86E-12,,
,0.870994,-7.22E-12,,
,0.872994,-6.68E-12,,
,0.874994,-6.79E-12,,
,0.876994,-7.54E-12,,
,0.878994,-8.08E-12,,
,0.880994,-8.08E-12,,
,0.882994,-7.65E-12,,
,0.884994,-7.00E-12,,
,0.886994,-6.36E-12,,
,0.888994,-6.04E-12,,
,0.890994,-6.04E-12,,
,0.892994,-6.57E-12,,
,0.894994,-6.90E-12,,
,0.896994,-7.22E-12,,
,0.898994,-7.00E-12,,
,0.900994,-6.57E-12,,
,0.902994,-5.82E-12,,
,0.904994,-5.18E-12,,
,0.906994,-4.86E-12,,
,0.908994,-5.39E-12,,
,0.910994,-6.04E-12,,
,0.912994,-6.47E-12,,
,0.914994,-6.14E-12,,
,0.916994,-5.50E-12,,
,0.918994,-4.96E-12,,
,0.920994,-4.43E-12,,
,0.922994,-4.32E-12,,
,0.924994,-4.43E-12,,
,0.926994,-4.86E-12,,
,0.928994,-5.39E-12,,
,0.930994,-5.39E-12,,
,0.932994,-5.07E-12,,
,0.934994,-4.53E-12,,
,0.936994,-3.89E-12,,
,0.938994,-3.68E-12,,
,0.940994,-3.46E-12,,
,0.942994,-4.00E-12,,
,0.944994,-4.43E-12,,
,0.946994,-4.75E-12,,
,0.948994,-4.64E-12,,
,0.950994,-4.00E-12,,
,0.952994,-3.14E-12,,
,0.954994,-2.39E-12,,
,0.956994,-2.07E-12,,
,0.958994,-2.39E-12,,
,0.960994,-2.92E-12,,
,0.962994,-3.46E-12,,
,0.964994,-3.35E-12,,
,0.966994,-2.60E-12,,
,0.968994,-1.85E-12,,
,0.970994,-1.31E-12,,
,0.972994,-9.92E-13,,
,0.974994,-9.92E-13,,
,0.976994,-1.21E-12,,
,0.978994,-1.64E-12,,
,0.980994,-1.64E-12,,
,0.982994,-1.31E-12,,
,0.984994,-7.77E-13,,
,0.986994,-2.53E-14,,
,0.988994,5.11E-13,,
,0.990994,6.19E-13,,
,0.992994,2.97E-13,,
,0.994994,-2.53E-14,,
,0.996994,-1.33E-13,,
,0.998994,8.20E-14,,
,1.000994,6.19E-13,,
,1.002994,1.48E-12,,
,1.004994,2.01E-12,,
,1.006994,2.34E-12,,
,1.008994,2.12E-12,,
,1.010994,1.80E-12,,
,1.012994,1.48E-12,,
,1.014994,1.48E-12,,
,1.016994,2.23E-12,,
,1.018994,3.20E-12,,
,1.020994,4.05E-12,,
,1.022994,4.27E-12,,
,1.024994,3.95E-12,,
,1.026994,3.30E-12,,
,1.028994,2.77E-12,,
,1.030994,2.77E-12,,
,1.032994,3.41E-12,,
,1.034994,4.05E-12,,
,1.036994,4.59E-12,,
,1.038994,4.91E-12,,
,1.040994,5.24E-12,,
,1.042994,5.02E-12,,
,1.044994,4.48E-12,,
,1.046994,3.95E-12,,
,1.048994,4.05E-12,,
,1.050994,4.48E-12,,
,1.052994,5.24E-12,,
,1.054994,5.77E-12,,
,1.056994,5.77E-12,,
,1.058994,5.34E-12,,
,1.060994,4.59E-12,,
,1.062994,4.38E-12,,
,1.064994,4.59E-12,,
,1.066994,5.13E-12,,
,1.068994,5.66E-12,,
,1.070994,6.09E-12,,
,1.072994,6.42E-12,,
,1.074994,6.42E-12,,
,1.076994,5.66E-12,,
,1.078994,5.02E-12,,
,1.080994,4.59E-12,,
,1.082994,4.91E-12,,
,1.084994,5.45E-12,,
,1.086994,5.99E-12,,
,1.088994,6.09E-12,,
,1.090994,5.88E-12,,
,1.092994,5.56E-12,,
,1.094994,5.13E-12,,
,1.096994,4.59E-12,,
,1.098994,4.48E-12,,
,1.100994,4.81E-12,,
,1.102994,5.45E-12,,
,1.104994,5.77E-12,,
,1.106994,5.88E-12,,
,1.108994,5.24E-12,,
,1.110994,4.59E-12,,
,1.112994,3.84E-12,,
,1.114994,3.84E-12,,
,1.116994,4.05E-12,,
,1.118994,4.81E-12,,
,1.120994,5.45E-12,,
,1.122994,5.45E-12,,
,1.124994,5.13E-12,,
,1.126994,4.48E-12,,
,1.128994,3.95E-12,,
,1.130994,3.41E-12,,
,1.132994,3.41E-12,,
,1.134994,3.95E-12,,
,1.136994,4.59E-12,,
,1.138994,4.81E-12,,
,1.140994,4.59E-12,,
,1.142994,3.95E-12,,
,1.144994,3.41E-12,,
,1.146994,3.09E-12,,
,1.148994,3.20E-12,,
,1.150994,3.41E-12,,
,1.152994,3.84E-12,,
,1.154994,4.16E-12,,
,1.156994,4.27E-12,,
,1.158994,3.84E-12,,
,1.160994,3.30E-12,,
,1.162994,2.66E-12,,
,1.164994,2.55E-12,,
,1.166994,2.66E-12,,
,1.168994,3.30E-12,,
,1.170994,3.62E-12,,
,1.172994,3.73E-12,,
,1.174994,3.09E-12,,
,1.176994,2.34E-12,,
,1.178994,1.80E-12,,
,1.180994,1.69E-12,,
,1.182994,1.91E-12,,
,1.184994,2.34E-12,,
,1.186994,2.77E-12,,
,1.188994,3.09E-12,,
,1.190994,2.77E-12,,
,1.192994,2.12E-12,,
,1.194994,1.48E-12,,
,1.196994,9.41E-13,,
,1.198994,1.05E-12,,
,1.200994,1.37E-12,,
,1.202994,2.01E-12,,
,1.204994,2.23E-12,,
,1.206994,2.12E-12,,
,1.208994,1.48E-12,,
,1.210994,8.34E-13,,
,1.212994,1.89E-13,,
,1.214994,1.89E-13,,
,1.216994,4.04E-13,,
,1.218994,9.41E-13,,
,1.220994,1.16E-12,,
,1.222994,1.16E-12,,
,1.224994,7.26E-13,,
,1.226994,2.97E-13,,
,1.228994,-2.40E-13,,
,1.230994,-3.47E-13,,
,1.232994,-2.40E-13,,
,1.234994,8.20E-14,,
,1.236994,5.11E-13,,
,1.238994,7.26E-13,,
,1.240994,6.19E-13,,
,1.242994,-1.33E-13,,
,1.244994,-9.92E-13,,
,1.246994,-1.42E-12,,
,1.248994,-1.53E-12,,
,1.250994,-1.10E-12,,
,1.252994,-6.69E-13,,
,1.254994,-2.40E-13,,
,1.256994,-2.40E-13,,
,1.258994,-6.69E-13,,
,1.260994,-9.92E-13,,
,1.262994,-1.53E-12,,
,1.264994,-1.74E-12,,
,1.266994,-1.74E-12,,
,1.268994,-1.21E-12,,
,1.270994,-7.77E-13,,
,1.272994,-7.77E-13,,
,1.274994,-1.31E-12,,
,1.276994,-1.85E-12,,
,1.278994,-2.60E-12,,
,1.280994,-2.82E-12,,
,1.282994,-2.71E-12,,
,1.284994,-2.07E-12,,
,1.286994,-1.64E-12,,
,1.288994,-1.21E-12,,
,1.290994,-1.31E-12,,
,1.292994,-1.74E-12,,
,1.294994,-2.49E-12,,
,1.296994,-3.14E-12,,
,1.298994,-2.92E-12,,
,1.300994,-2.71E-12,,
,1.302994,-1.96E-12,,
,1.304994,-1.74E-12,,
,1.306994,-1.53E-12,,
,1.308994,-1.74E-12,,
,1.310994,-2.39E-12,,
,1.312994,-3.03E-12,,
,1.314994,-3.25E-12,,
,1.316994,-2.71E-12,,
,1.318994,-1.96E-12,,
,1.320994,-1.53E-12,,
,1.322994,-1.53E-12,,
,1.324994,-1.85E-12,,
,1.326994,-2.49E-12,,
,1.328994,-2.82E-12,,
,1.330994,-3.03E-12,,
,1.332994,-2.71E-12,,
,1.334994,-2.28E-12,,
,1.336994,-1.64E-12,,
,1.338994,-1.10E-12,,
,1.340994,-1.31E-12,,
,1.342994,-1.85E-12,,
,1.344994,-2.82E-12,,
,1.346994,-3.35E-12,,
,1.348994,-3.35E-12,,
,1.350994,-2.71E-12,,
,1.352994,-2.07E-12,,
,1.354994,-1.64E-12,,
,1.356994,-1.64E-12,,
,1.358994,-2.07E-12,,
,1.360994,-2.82E-12,,
,1.362994,-3.57E-12,,
,1.364994,-3.57E-12,,
,1.366994,-3.14E-12,,
,1.368994,-2.39E-12,,
,1.370994,-1.85E-12,,
,1.372994,-1.85E-12,,
,1.374994,-2.07E-12,,
,1.376994,-2.82E-12,,
,1.378994,-3.14E-12,,
,1.380994,-3.57E-12,,
,1.382994,-3.46E-12,,
,1.384994,-3.14E-12,,
,1.386994,-2.17E-12,,
,1.388994,-1.74E-12,,
,1.390994,-1.85E-12,,
,1.392994,-2.71E-12,,
,1.394994,-3.25E-12,,
,1.396994,-3.35E-12,,
,1.398994,-3.46E-12,,
,1.400994,-3.03E-12,,
,1.402994,-2.71E-12,,
,1.404994,-2.28E-12,,
,1.406994,-2.39E-12,,
,1.408994,-2.82E-12,,
,1.410994,-3.46E-12,,
,1.412994,-4.00E-12,,
,1.414994,-4.21E-12,,
,1.416994,-3.89E-12,,
,1.418994,-3.25E-12,,
,1.420994,-2.71E-12,,
,1.422994,-2.60E-12,,
,1.424994,-2.92E-12,,
,1.426994,-3.78E-12,,
,1.428994,-4.32E-12,,
,1.430994,-4.86E-12,,
,1.432994,-4.75E-12,,
,1.434994,-4.32E-12,,
,1.436994,-3.78E-12,,
,1.438994,-3.25E-12,,
,1.440994,-3.46E-12,,
,1.442994,-4.00E-12,,
,1.444994,-4.86E-12,,
,1.446994,-5.39E-12,,
,1.448994,-5.50E-12,,
,1.450994,-5.07E-12,,
,1.452994,-4.43E-12,,
,1.454994,-3.89E-12,,
,1.456994,-4.21E-12,,
,1.458994,-4.96E-12,,
,1.460994,-6.04E-12,,
,1.462994,-6.36E-12,,
,1.464994,-6.47E-12,,
,1.466994,-5.93E-12,,
,1.468994,-5.61E-12,,
,1.470994,-4.96E-12,,
,1.472994,-4.86E-12,,
,1.474994,-4.96E-12,,
,1.476994,-5.72E-12,,
,1.478994,-6.25E-12,,
,1.480994,-6.68E-12,,
,1.482994,-6.68E-12,,
,1.484994,-6.47E-12,,
,1.486994,-5.93E-12,,
,1.488994,-5.50E-12,,
,1.490994,-5.72E-12,,
,1.492994,-6.14E-12,,
,1.494994,-6.90E-12,,
,1.496994,-7.22E-12,,
,1.498994,-7.43E-12,,
,1.500994,-7.00E-12,,
,1.502994,-6.47E-12,,
,1.504994,-6.14E-12,,
,1.506994,-6.36E-12,,
,1.508994,-6.79E-12,,
,1.510994,-7.54E-12,,
,1.512994,-7.97E-12,,
,1.514994,-8.18E-12,,
,1.516994,-7.75E-12,,
,1.518994,-7.22E-12,,
,1.520994,-6.90E-12,,
,1.522994,-6.79E-12,,
,1.524994,-7.00E-12,,
,1.526994,-7.65E-12,,
,1.528994,-8.51E-12,,
,1.530994,-9.15E-12,,
,1.532994,-8.72E-12,,
,1.534994,-8.08E-12,,
,1.536994,-7.54E-12,,
,1.538994,-7.65E-12,,
,1.540994,-7.86E-12,,
,1.542994,-8.40E-12,,
,1.544994,-8.94E-12,,
,1.546994,-9.37E-12,,
,1.548994,-9.26E-12,,
,1.550994,-8.72E-12,,
,1.552994,-7.97E-12,,
,1.554994,-7.43E-12,,
,1.556994,-7.43E-12,,
,1.558994,-7.86E-12,,
,1.560994,-8.40E-12,,
,1.562994,-8.83E-12,,
,1.564994,-8.94E-12,,
,1.566994,-8.72E-12,,
,1.568994,-8.08E-12,,
,1.570994,-7.65E-12,,
,1.572994,-7.33E-12,,
,1.574994,-7.65E-12,,
,1.576994,-8.08E-12,,
,1.578994,-8.72E-12,,
,1.580994,-8.94E-12,,
,1.582994,-8.72E-12,,
,1.584994,-8.18E-12,,
,1.586994,-7.43E-12,,
,1.588994,-6.68E-12,,
,1.590994,-6.47E-12,,
,1.592994,-7.11E-12,,
,1.594994,-7.86E-12,,
,1.596994,-8.29E-12,,
,1.598994,-8.08E-12,,
,1.600994,-7.54E-12,,
,1.602994,-6.68E-12,,
,1.604994,-5.93E-12,,
,1.606994,-5.82E-12,,
,1.608994,-6.14E-12,,
,1.610994,-6.90E-12,,
,1.612994,-7.22E-12,,
,1.614994,-7.43E-12,,
,1.616994,-6.79E-12,,
,1.618994,-6.25E-12,,
,1.620994,-5.61E-12,,
,1.622994,-5.39E-12,,
,1.624994,-5.39E-12,,
,1.626994,-5.82E-12,,
,1.628994,-6.25E-12,,
,1.630994,-6.36E-12,,
,1.632994,-5.93E-12,,
,1.634994,-5.39E-12,,
,1.636994,-4.75E-12,,
,1.638994,-4.43E-12,,
,1.640994,-4.43E-12,,
,1.642994,-4.96E-12,,
,1.644994,-5.61E-12,,
,1.646994,-5.72E-12,,
,1.648994,-5.39E-12,,
,1.650994,-4.75E-12,,
,1.652994,-4.10E-12,,
,1.654994,-3.57E-12,,
,1.656994,-3.25E-12,,
,1.658994,-3.68E-12,,
,1.660994,-4.43E-12,,
,1.662994,-4.96E-12,,
,1.664994,-4.96E-12,,
,1.666994,-4.53E-12,,
,1.668994,-4.00E-12,,
,1.670994,-3.46E-12,,
,1.672994,-3.25E-12,,
,1.674994,-3.46E-12,,
,1.676994,-4.10E-12,,
,1.678994,-4.75E-12,,
,1.680994,-5.18E-12,,
,1.682994,-5.18E-12,,
,1.684994,-4.75E-12,,
,1.686994,-4.10E-12,,
,1.688994,-3.68E-12,,
,1.690994,-3.78E-12,,
,1.692994,-4.53E-12,,
,1.694994,-5.18E-12,,
,1.696994,-5.61E-12,,
,1.698994,-5.61E-12,,
,1.700994,-5.29E-12,,
,1.702994,-4.75E-12,,
,1.704994,-4.21E-12,,
,1.706994,-4.53E-12,,
,1.708994,-5.18E-12,,
,1.710994,-6.25E-12,,
,1.712994,-6.68E-12,,
,1.714994,-7.00E-12,,
,1.716994,-6.68E-12,,
,1.718994,-6.25E-12,,
,1.720994,-5.72E-12,,
,1.722994,-5.39E-12,,
,1.724994,-5.72E-12,,
,1.726994,-6.36E-12,,
,1.728994,-7.11E-12,,
,1.730994,-7.65E-12,,
,1.732994,-7.54E-12,,
,1.734994,-7.22E-12,,
,1.736994,-6.47E-12,,
,1.738994,-6.36E-12,,
,1.740994,-6.47E-12,,
,1.742994,-7.00E-12,,
,1.744994,-7.43E-12,,
,1.746994,-7.86E-12,,
,1.748994,-7.97E-12,,
,1.750994,-7.54E-12,,
,1.752994,-6.79E-12,,
,1.754994,-6.25E-12,,
,1.756994,-6.25E-12,,
,1.758994,-6.79E-12,,
,1.760994,-7.43E-12,,
,1.762994,-8.08E-12,,
,1.764994,-8.29E-12,,
,1.766994,-7.97E-12,,
,1.768994,-7.22E-12,,
,1.770994,-6.47E-12,,
,1.772994,-6.04E-12,,
,1.774994,-6.25E-12,,
,1.776994,-6.90E-12,,
,1.778994,-7.43E-12,,
,1.780994,-7.54E-12,,
,1.782994,-7.11E-12,,
,1.784994,-6.68E-12,,
,1.786994,-6.14E-12,,
,1.788994,-6.14E-12,,
,1.790994,-6.36E-12,,
,1.792994,-7.00E-12,,
,1.794994,-7.54E-12,,
,1.796994,-7.97E-12,,
,1.798994,-8.18E-12,,
,1.800994,-7.75E-12,,
,1.802994,-7.11E-12,,
,1.804994,-6.36E-12,,
,1.806994,-6.47E-12,,
,1.808994,-7.11E-12,,
,1.810994,-7.97E-12,,
,1.812994,-8.40E-12,,
,1.814994,-8.51E-12,,
,1.816994,-8.18E-12,,
,1.818994,-7.54E-12,,
,1.820994,-6.90E-12,,
,1.822994,-6.79E-12,,
,1.824994,-7.33E-12,,
,1.826994,-8.08E-12,,
,1.828994,-8.72E-12,,
,1.830994,-8.94E-12,,
,1.832994,-8.83E-12,,
,1.834994,-8.51E-12,,
,1.836994,-8.18E-12,,
,1.838994,-7.97E-12,,
,1.840994,-8.18E-12,,
,1.842994,-8.51E-12,,
,1.844994,-9.15E-12,,
,1.846994,-9.37E-12,,
,1.848994,-9.47E-12,,
,1.850994,-9.04E-12,,
,1.852994,-8.40E-12,,
,1.854994,-8.08E-12,,
,1.856994,-8.08E-12,,
,1.858994,-8.61E-12,,
,1.860994,-9.04E-12,,
,1.862994,-9.58E-12,,
,1.864994,-9.69E-12,,
,1.866994,-9.47E-12,,
,1.868994,-8.94E-12,,
,1.870994,-8.51E-12,,
,1.872994,-8.29E-12,,
,1.874994,-8.51E-12,,
,1.876994,-9.04E-12,,
,1.878994,-9.69E-12,,
,1.880994,-9.90E-12,,
,1.882994,-9.79E-12,,
,1.884994,-9.26E-12,,
,1.886994,-8.72E-12,,
,1.888994,-8.18E-12,,
,1.890994,-8.29E-12,,
,1.892994,-8.72E-12,,
,1.894994,-9.47E-12,,
,1.896994,-9.79E-12,,
,1.898994,-9.58E-12,,
,1.900994,-9.04E-12,,
,1.902994,-8.29E-12,,
,1.904994,-7.86E-12,,
,1.906994,-7.54E-12,,
,1.908994,-7.65E-12,,
,1.910994,-7.86E-12,,
,1.912994,-8.08E-12,,
,1.914994,-8.40E-12,,
,1.916994,-8.18E-12,,
,1.918994,-7.54E-12,,
,1.920994,-6.36E-12,,
,1.922994,-5.93E-12,,
,1.924994,-6.04E-12,,
,1.926994,-6.57E-12,,
,1.928994,-6.79E-12,,
,1.930994,-6.79E-12,,
,1.932994,-6.36E-12,,
,1.934994,-5.72E-12,,
,1.936994,-4.86E-12,,
,1.938994,-4.43E-12,,
,1.940994,-4.43E-12,,
,1.942994,-4.96E-12,,
,1.944994,-5.18E-12,,
,1.946994,-5.29E-12,,
,1.948994,-4.86E-12,,
,1.950994,-4.32E-12,,
,1.952994,-3.46E-12,,
,1.954994,-2.82E-12,,
,1.956994,-2.60E-12,,
,1.958994,-2.92E-12,,
,1.960994,-3.25E-12,,
,1.962994,-3.46E-12,,
,1.964994,-3.03E-12,,
,1.966994,-2.60E-12,,
,1.968994,-1.96E-12,,
,1.970994,-1.53E-12,,
,1.972994,-1.42E-12,,
,1.974994,-1.74E-12,,
,1.976994,-2.28E-12,,
,1.978994,-2.71E-12,,
,1.980994,-2.82E-12,,
,1.982994,-2.60E-12,,
,1.984994,-1.96E-12,,
,1.986994,-1.42E-12,,
,1.988994,-9.92E-13,,
,1.990994,-9.92E-13,,
,1.992994,-1.21E-12,,
,1.994994,-1.74E-12,,
,1.996994,-2.17E-12,,
,1.998994,-2.17E-12,,
,2.000994,-1.53E-12,,
,2.002994,-8.84E-13,,
,2.004994,-2.40E-13,,
,2.006994,-2.53E-14,,
,2.008994,-1.33E-13,,
,2.010994,-5.62E-13,,
,2.012994,-9.92E-13,,
,2.014994,-8.84E-13,,
,2.016994,-5.62E-13,,
,2.018994,2.97E-13,,
,2.020994,1.16E-12,,
,2.022994,1.80E-12,,
,2.024994,1.69E-12,,
,2.026994,1.26E-12,,
,2.028994,1.05E-12,,
,2.030994,1.26E-12,,
,2.032994,1.48E-12,,
,2.034994,2.12E-12,,
,2.036994,2.87E-12,,
,2.038994,3.73E-12,,
,2.040994,3.95E-12,,
,2.042994,3.73E-12,,
,2.044994,3.41E-12,,
,2.046994,3.30E-12,,
,2.048994,3.41E-12,,
,2.050994,4.16E-12,,
,2.052994,5.02E-12,,
,2.054994,5.77E-12,,
,2.056994,5.99E-12,,
,2.058994,5.88E-12,,
,2.060994,5.66E-12,,
,2.062994,5.56E-12,,
,2.064994,5.66E-12,,
,2.066994,6.09E-12,,
,2.068994,7.17E-12,,
,2.070994,8.03E-12,,
,2.072994,8.67E-12,,
,2.074994,8.35E-12,,
,2.076994,8.13E-12,,
,2.078994,7.81E-12,,
,2.080994,7.92E-12,,
,2.082994,8.13E-12,,
,2.084994,8.78E-12,,
,2.086994,9.42E-12,,
,2.088994,9.96E-12,,
,2.090994,1.01E-11,,
,2.092994,9.74E-12,,
,2.094994,9.21E-12,,
,2.096994,8.89E-12,,
,2.098994,8.99E-12,,
,2.100994,9.64E-12,,
,2.102994,1.03E-11,,
,2.104994,1.07E-11,,
,2.106994,1.09E-11,,
,2.108994,1.07E-11,,
,2.110994,1.02E-11,,
,2.112994,9.42E-12,,
,2.114994,9.42E-12,,
,2.116994,9.96E-12,,
,2.118994,1.06E-11,,
,2.120994,1.10E-11,,
,2.122994,1.10E-11,,
,2.124994,1.08E-11,,
,2.126994,1.03E-11,,
,2.128994,9.85E-12,,
,2.130994,9.53E-12,,
,2.132994,9.53E-12,,
,2.134994,9.74E-12,,
,2.136994,1.02E-11,,
,2.138994,1.05E-11,,
,2.140994,1.02E-11,,
,2.142994,9.74E-12,,
,2.144994,8.89E-12,,
,2.146994,8.78E-12,,
,2.148994,8.67E-12,,
,2.150994,9.21E-12,,
,2.152994,9.74E-12,,
,2.154994,1.02E-11,,
,2.156994,1.02E-11,,
,2.158994,9.64E-12,,
,2.160994,8.78E-12,,
,2.162994,8.13E-12,,
,2.164994,7.81E-12,,
,2.166994,8.13E-12,,
,2.168994,8.56E-12,,
,2.170994,9.10E-12,,
,2.172994,9.10E-12,,
,2.174994,8.78E-12,,
,2.176994,8.13E-12,,
,2.178994,7.60E-12,,
,2.180994,7.06E-12,,
,2.182994,7.06E-12,,
,2.184994,7.49E-12,,
,2.186994,8.13E-12,,
,2.188994,8.46E-12,,
,2.190994,8.35E-12,,
,2.192994,7.49E-12,,
,2.194994,6.63E-12,,
,2.196994,5.88E-12,,
,2.198994,6.09E-12,,
,2.200994,6.52E-12,,
,2.202994,7.06E-12,,
,2.204994,7.38E-12,,
,2.206994,7.17E-12,,
,2.208994,6.74E-12,,
,2.210994,5.99E-12,,
,2.212994,5.56E-12,,
,2.214994,5.24E-12,,
,2.216994,5.56E-12,,
,2.218994,5.88E-12,,
,2.220994,6.42E-12,,
,2.222994,6.52E-12,,
,2.224994,6.20E-12,,
,2.226994,5.56E-12,,
,2.228994,4.70E-12,,
,2.230994,4.27E-12,,
,2.232994,4.38E-12,,
,2.234994,4.81E-12,,
,2.236994,5.24E-12,,
,2.238994,5.24E-12,,
,2.240994,5.13E-12,,
,2.242994,4.59E-12,,
,2.244994,3.95E-12,,
,2.246994,3.20E-12,,
,2.248994,3.20E-12,,
,2.250994,3.52E-12,,
,2.252994,4.16E-12,,
,2.254994,4.38E-12,,
,2.256994,4.27E-12,,
,2.258994,3.62E-12,,
,2.260994,2.77E-12,,
,2.262994,2.23E-12,,
,2.264994,1.80E-12,,
,2.266994,2.12E-12,,
,2.268994,2.55E-12,,
,2.270994,3.20E-12,,
,2.272994,3.09E-12,,
,2.274994,2.55E-12,,
,2.276994,1.80E-12,,
,2.278994,1.05E-12,,
,2.280994,4.04E-13,,
,2.282994,4.04E-13,,
,2.284994,8.34E-13,,
,2.286994,1.37E-12,,
,2.288994,1.59E-12,,
,2.290994,1.37E-12,,
,2.292994,7.26E-13,,
,2.294994,-2.40E-13,,
,2.296994,-9.92E-13,,
,2.298994,-1.21E-12,,
,2.300994,-1.10E-12,,
,2.302994,-6.69E-13,,
,2.304994,-1.33E-13,,
,2.306994,-1.33E-13,,
,2.308994,-5.62E-13,,
,2.310994,-1.42E-12,,
,2.312994,-2.07E-12,,
,2.314994,-2.28E-12,,
,2.316994,-1.96E-12,,
,2.318994,-1.42E-12,,
,2.320994,-1.21E-12,,
,2.322994,-1.31E-12,,
,2.324994,-1.64E-12,,
,2.326994,-2.39E-12,,
,2.328994,-3.14E-12,,
,2.330994,-3.78E-12,,
,2.332994,-3.46E-12,,
,2.334994,-3.14E-12,,
,2.336994,-2.39E-12,,
,2.338994,-2.39E-12,,
,2.340994,-2.49E-12,,
,2.342994,-3.35E-12,,
,2.344994,-4.00E-12,,
,2.346994,-4.53E-12,,
,2.348994,-4.64E-12,,
,2.350994,-4.43E-12,,
,2.352994,-4.10E-12,,
,2.354994,-3.68E-12,,
,2.356994,-3.68E-12,,
,2.358994,-4.10E-12,,
,2.360994,-4.96E-12,,
,2.362994,-5.72E-12,,
,2.364994,-6.14E-12,,
,2.366994,-5.93E-12,,
,2.368994,-5.61E-12,,
,2.370994,-5.18E-12,,
,2.372994,-5.18E-12,,
,2.374994,-5.39E-12,,
,2.376994,-5.93E-12,,
,2.378994,-6.68E-12,,
,2.380994,-7.00E-12,,
,2.382994,-7.11E-12,,
,2.384994,-6.68E-12,,
,2.386994,-6.25E-12,,
,2.388994,-5.82E-12,,
,2.390994,-5.82E-12,,
,2.392994,-6.47E-12,,
,2.394994,-7.33E-12,,
,2.396994,-7.65E-12,,
,2.398994,-7.65E-12,,
,2.400994,-7.22E-12,,
,2.402994,-6.90E-12,,
,2.404994,-6.57E-12,,
,2.406994,-6.47E-12,,
,2.408994,-6.90E-12,,
,2.410994,-7.54E-12,,
,2.412994,-8.29E-12,,
,2.414994,-8.51E-12,,
,2.416994,-8.18E-12,,
,2.418994,-7.54E-12,,
,2.420994,-7.11E-12,,
,2.422994,-7.11E-12,,
,2.424994,-7.54E-12,,
,2.426994,-8.18E-12,,
,2.428994,-8.72E-12,,
,2.430994,-9.04E-12,,
,2.432994,-8.83E-12,,
,2.434994,-8.61E-12,,
,2.436994,-8.08E-12,,
,2.438994,-7.97E-12,,
,2.440994,-7.86E-12,,
,2.442994,-8.29E-12,,
,2.444994,-8.83E-12,,
,2.446994,-9.26E-12,,
,2.448994,-9.47E-12,,
,2.450994,-9.15E-12,,
,2.452994,-8.61E-12,,
,2.454994,-8.08E-12,,
,2.456994,-8.08E-12,,
,2.458994,-8.51E-12,,
,2.460994,-9.15E-12,,
,2.462994,-9.58E-12,,
,2.464994,-9.79E-12,,
,2.466994,-9.58E-12,,
,2.468994,-9.15E-12,,
,2.470994,-8.72E-12,,
,2.472994,-8.40E-12,,
,2.474994,-8.61E-12,,
,2.476994,-9.04E-12,,
,2.478994,-9.69E-12,,
,2.480994,-9.90E-12,,
,2.482994,-9.79E-12,,
,2.484994,-9.47E-12,,
,2.486994,-9.04E-12,,
,2.488994,-8.83E-12,,
,2.490994,-8.61E-12,,
,2.492994,-8.94E-12,,
,2.494994,-9.37E-12,,
,2.496994,-9.90E-12,,
,2.498994,-1.01E-11,,
,2.500994,-9.90E-12,,
,2.502994,-9.15E-12,,
,2.504994,-8.72E-12,,
,2.506994,-8.51E-12,,
,2.508994,-9.04E-12,,
,2.510994,-9.37E-12,,
,2.512994,-9.58E-12,,
,2.514994,-9.58E-12,,
,2.516994,-9.37E-12,,
,2.518994,-8.94E-12,,
,2.520994,-8.51E-12,,
,2.522994,-8.18E-12,,
,2.524994,-8.29E-12,,
,2.526994,-8.61E-12,,
,2.528994,-8.94E-12,,
,2.530994,-9.26E-12,,
,2.532994,-8.94E-12,,
,2.534994,-8.40E-12,,
,2.536994,-7.54E-12,,
,2.538994,-7.11E-12,,
,2.540994,-7.00E-12,,
,2.542994,-7.65E-12,,
,2.544994,-8.18E-12,,
,2.546994,-8.40E-12,,
,2.548994,-8.08E-12,,
,2.550994,-7.43E-12,,
,2.552994,-6.79E-12,,
,2.554994,-6.04E-12,,
,2.556994,-5.82E-12,,
,2.558994,-6.04E-12,,
,2.560994,-6.47E-12,,
,2.562994,-6.90E-12,,
,2.564994,-6.90E-12,,
,2.566994,-6.68E-12,,
,2.568994,-6.04E-12,,
,2.570994,-5.29E-12,,
,2.572994,-4.86E-12,,
,2.574994,-4.86E-12,,
,2.576994,-5.50E-12,,
,2.578994,-5.82E-12,,
,2.580994,-5.93E-12,,
,2.582994,-5.50E-12,,
,2.584994,-4.75E-12,,
,2.586994,-4.10E-12,,
,2.588994,-3.68E-12,,
,2.590994,-3.89E-12,,
,2.592994,-4.10E-12,,
,2.594994,-4.32E-12,,
,2.596994,-4.32E-12,,
,2.598994,-4.10E-12,,
,2.600994,-3.68E-12,,
,2.602994,-2.92E-12,,
,2.604994,-2.39E-12,,
,2.606994,-2.28E-12,,
,2.608994,-2.60E-12,,
,2.610994,-3.14E-12,,
,2.612994,-3.57E-12,,
,2.614994,-3.78E-12,,
,2.616994,-3.57E-12,,
,2.618994,-2.92E-12,,
,2.620994,-2.17E-12,,
,2.622994,-1.85E-12,,
,2.624994,-1.74E-12,,
,2.626994,-2.28E-12,,
,2.628994,-2.82E-12,,
,2.630994,-3.35E-12,,
,2.632994,-3.14E-12,,
,2.634994,-2.49E-12,,
,2.636994,-1.74E-12,,
,2.638994,-1.31E-12,,
,2.640994,-1.42E-12,,
,2.642994,-1.85E-12,,
,2.644994,-2.49E-12,,
,2.646994,-2.92E-12,,
,2.648994,-3.03E-12,,
,2.650994,-2.60E-12,,
,2.652994,-1.85E-12,,
,2.654994,-1.31E-12,,
,2.656994,-1.31E-12,,
,2.658994,-1.64E-12,,
,2.660994,-2.28E-12,,
,2.662994,-2.82E-12,,
,2.664994,-3.14E-12,,
,2.666994,-2.92E-12,,
,2.668994,-2.28E-12,,
,2.670994,-1.64E-12,,
,2.672994,-1.53E-12,,
,2.674994,-1.74E-12,,
,2.676994,-2.49E-12,,
,2.678994,-3.03E-12,,
,2.680994,-3.35E-12,,
,2.682994,-3.25E-12,,
,2.684994,-2.71E-12,,
,2.686994,-2.17E-12,,
,2.688994,-1.85E-12,,
,2.690994,-1.85E-12,,
,2.692994,-2.49E-12,,
,2.694994,-3.03E-12,,
,2.696994,-3.35E-12,,
,2.698994,-3.14E-12,,
,2.700994,-2.60E-12,,
,2.702994,-2.07E-12,,
,2.704994,-1.64E-12,,
,2.706994,-1.42E-12,,
,2.708994,-1.74E-12,,
,2.710994,-2.28E-12,,
,2.712994,-2.82E-12,,
,2.714994,-3.03E-12,,
,2.716994,-2.92E-12,,
,2.718994,-2.28E-12,,
,2.720994,-1.53E-12,,
,2.722994,-1.10E-12,,
,2.724994,-1.53E-12,,
,2.726994,-2.07E-12,,
,2.728994,-2.49E-12,,
,2.730994,-2.60E-12,,
,2.732994,-2.71E-12,,
,2.734994,-2.39E-12,,
,2.736994,-1.96E-12,,
,2.738994,-1.42E-12,,
,2.740994,-1.53E-12,,
,2.742994,-1.96E-12,,
,2.744994,-2.60E-12,,
,2.746994,-3.14E-12,,
,2.748994,-3.14E-12,,
,2.750994,-2.82E-12,,
,2.752994,-2.39E-12,,
,2.754994,-1.96E-12,,
,2.756994,-1.96E-12,,
,2.758994,-2.28E-12,,
,2.760994,-3.14E-12,,
,2.762994,-3.78E-12,,
,2.764994,-3.78E-12,,
,2.766994,-3.35E-12,,
,2.768994,-2.92E-12,,
,2.770994,-2.49E-12,,
,2.772994,-2.17E-12,,
,2.774994,-2.28E-12,,
,2.776994,-2.71E-12,,
,2.778994,-3.25E-12,,
,2.780994,-3.46E-12,,
,2.782994,-3.35E-12,,
,2.784994,-3.03E-12,,
,2.786994,-2.39E-12,,
,2.788994,-2.17E-12,,
,2.790994,-2.39E-12,,
,2.792994,-3.03E-12,,
,2.794994,-3.35E-12,,
,2.796994,-3.78E-12,,
,2.798994,-3.89E-12,,
,2.800994,-3.89E-12,,
,2.802994,-3.25E-12,,
,2.804994,-2.71E-12,,
,2.806994,-2.49E-12,,
,2.808994,-2.82E-12,,
,2.810994,-3.57E-12,,
,2.812994,-4.10E-12,,
,2.814994,-4.43E-12,,
,2.816994,-4.00E-12,,
,2.818994,-3.57E-12,,
,2.820994,-3.03E-12,,
,2.822994,-2.71E-12,,
,2.824994,-2.82E-12,,
,2.826994,-3.25E-12,,
,2.828994,-3.89E-12,,
,2.830994,-4.21E-12,,
,2.832994,-4.00E-12,,
,2.834994,-3.68E-12,,
,2.836994,-3.14E-12,,
,2.838994,-3.03E-12,,
,2.840994,-3.14E-12,,
,2.842994,-3.68E-12,,
,2.844994,-4.21E-12,,
,2.846994,-4.64E-12,,
,2.848994,-4.75E-12,,
,2.850994,-4.32E-12,,
,2.852994,-3.68E-12,,
,2.854994,-3.03E-12,,
,2.856994,-3.14E-12,,
,2.858994,-3.46E-12,,
,2.860994,-4.00E-12,,
,2.862994,-4.32E-12,,
,2.864994,-4.64E-12,,
,2.866994,-4.53E-12,,
,2.868994,-4.10E-12,,
,2.870994,-3.57E-12,,
,2.872994,-3.25E-12,,
,2.874994,-3.35E-12,,
,2.876994,-3.68E-12,,
,2.878994,-4.21E-12,,
,2.880994,-4.43E-12,,
,2.882994,-4.43E-12,,
,2.884994,-4.00E-12,,
,2.886994,-3.35E-12,,
,2.888994,-2.71E-12,,
,2.890994,-2.82E-12,,
,2.892994,-3.57E-12,,
,2.894994,-4.43E-12,,
,2.896994,-4.53E-12,,
,2.898994,-4.32E-12,,
,2.900994,-3.89E-12,,
,2.902994,-3.57E-12,,
,2.904994,-3.03E-12,,
,2.906994,-2.82E-12,,
,2.908994,-3.03E-12,,
,2.910994,-3.78E-12,,
,2.912994,-4.10E-12,,
,2.914994,-4.21E-12,,
,2.916994,-3.78E-12,,
,2.918994,-3.14E-12,,
,2.920994,-2.49E-12,,
,2.922994,-2.07E-12,,
,2.924994,-2.28E-12,,
,2.926994,-2.92E-12,,
,2.928994,-3.57E-12,,
,2.930994,-3.68E-12,,
,2.932994,-3.25E-12,,
,2.934994,-2.60E-12,,
,2.936994,-2.07E-12,,
,2.938994,-1.74E-12,,
,2.940994,-1.64E-12,,
,2.942994,-2.07E-12,,
,2.944994,-2.60E-12,,
,2.946994,-3.25E-12,,
,2.948994,-3.25E-12,,
,2.950994,-2.60E-12,,
,2.952994,-1.74E-12,,
,2.954994,-1.21E-12,,
,2.956994,-9.92E-13,,
,2.958994,-1.21E-12,,
,2.960994,-1.64E-12,,
,2.962994,-2.28E-12,,
,2.964994,-2.39E-12,,
,2.966994,-1.96E-12,,
,2.968994,-8.84E-13,,
,2.970994,-2.40E-13,,
,2.972994,1.89E-13,,
,2.974994,-2.53E-14,,
,2.976994,-5.62E-13,,
,2.978994,-1.10E-12,,
,2.980994,-1.31E-12,,
,2.982994,-8.84E-13,,
,2.984994,-3.47E-13,,
,2.986994,5.11E-13,,
,2.988994,1.16E-12,,
,2.990994,1.26E-12,,
,2.992994,9.41E-13,,
,2.994994,4.04E-13,,
,2.996994,2.97E-13,,
,2.998994,1.89E-13,,
,3.000994,7.26E-13,,
,3.002994,1.37E-12,,
,3.004994,2.01E-12,,
,3.006994,2.44E-12,,
,3.008994,2.23E-12,,
,3.010994,1.80E-12,,
,3.012994,1.37E-12,,
,3.014994,1.26E-12,,
,3.016994,1.48E-12,,
,3.018994,1.91E-12,,
,3.020994,2.55E-12,,
,3.022994,3.20E-12,,
,3.024994,3.09E-12,,
,3.026994,2.55E-12,,
,3.028994,1.80E-12,,
,3.030994,1.59E-12,,
,3.032994,1.80E-12,,
,3.034994,2.34E-12,,
,3.036994,2.98E-12,,
,3.038994,3.52E-12,,
,3.040994,3.41E-12,,
,3.042994,2.77E-12,,
,3.044994,2.01E-12,,
,3.046994,1.37E-12,,
,3.048994,1.48E-12,,
,3.050994,2.12E-12,,
,3.052994,2.98E-12,,
,3.054994,3.41E-12,,
,3.056994,3.41E-12,,
,3.058994,3.09E-12,,
,3.060994,2.55E-12,,
,3.062994,1.80E-12,,
,3.064994,1.48E-12,,
,3.066994,1.48E-12,,
,3.068994,1.91E-12,,
,3.070994,2.44E-12,,
,3.072994,2.77E-12,,
,3.074994,2.66E-12,,
,3.076994,1.91E-12,,
,3.078994,1.05E-12,,
,3.080994,5.11E-13,,
,3.082994,6.19E-13,,
,3.084994,1.05E-12,,
,3.086994,1.59E-12,,
,3.088994,1.80E-12,,
,3.090994,1.69E-12,,
,3.092994,1.16E-12,,
,3.094994,5.11E-13,,
,3.096994,-2.53E-14,,
,3.098994,-2.40E-13,,
,3.100994,8.20E-14,,
,3.102994,6.19E-13,,
,3.104994,9.41E-13,,
,3.106994,1.05E-12,,
,3.108994,5.11E-13,,
,3.110994,-1.33E-13,,
,3.112994,-8.84E-13,,
,3.114994,-1.10E-12,,
,3.116994,-8.84E-13,,
,3.118994,-3.47E-13,,
,3.120994,2.97E-13,,
,3.122994,4.04E-13,,
,3.124994,8.20E-14,,
,3.126994,-4.55E-13,,
,3.128994,-8.84E-13,,
,3.130994,-1.31E-12,,
,3.132994,-1.21E-12,,
,3.134994,-8.84E-13,,
,3.136994,-2.40E-13,,
,3.138994,-2.40E-13,,
,3.140994,-2.40E-13,,
,3.142994,-7.77E-13,,
,3.144994,-1.53E-12,,
,3.146994,-2.17E-12,,
,3.148994,-2.07E-12,,
,3.150994,-1.42E-12,,
,3.152994,-6.69E-13,,
,3.154994,-4.55E-13,,
,3.156994,-2.40E-13,,
,3.158994,-5.62E-13,,
,3.160994,-1.10E-12,,
,3.162994,-1.64E-12,,
,3.164994,-1.85E-12,,
,3.166994,-1.53E-12,,
,3.168994,-1.31E-12,,
,3.170994,-6.69E-13,,
,3.172994,-6.69E-13,,
,3.174994,-7.77E-13,,
,3.176994,-1.64E-12,,
,3.178994,-2.17E-12,,
,3.180994,-2.39E-12,,
,3.182994,-2.28E-12,,
,3.184994,-1.74E-12,,
,3.186994,-1.31E-12,,
,3.188994,-7.77E-13,,
,3.190994,-9.92E-13,,
,3.192994,-1.53E-12,,
,3.194994,-2.28E-12,,
,3.196994,-2.60E-12,,
,3.198994,-2.49E-12,,
,3.200994,-2.17E-12,,
,3.202994,-1.42E-12,,
,3.204994,-8.84E-13,,
,3.206994,-5.62E-13,,
,3.208994,-8.84E-13,,
,3.210994,-1.53E-12,,
,3.212994,-1.85E-12,,
,3.214994,-2.07E-12,,
,3.216994,-1.74E-12,,
,3.218994,-1.53E-12,,
,3.220994,-1.10E-12,,
,3.222994,-9.92E-13,,
,3.224994,-1.10E-12,,
,3.226994,-1.74E-12,,
,3.228994,-2.28E-12,,
,3.230994,-2.71E-12,,
,3.232994,-2.49E-12,,
,3.234994,-1.96E-12,,
,3.236994,-1.21E-12,,
,3.238994,-7.77E-13,,
,3.240994,-5.62E-13,,
,3.242994,-1.10E-12,,
,3.244994,-1.42E-12,,
,3.246994,-2.07E-12,,
,3.248994,-1.85E-12,,
,3.250994,-1.64E-12,,
,3.252994,-9.92E-13,,
,3.254994,-3.47E-13,,
,3.256994,-2.53E-14,,
,3.258994,-2.40E-13,,
,3.260994,-9.92E-13,,
,3.262994,-1.53E-12,,
,3.264994,-1.74E-12,,
,3.266994,-1.42E-12,,
,3.268994,-7.77E-13,,
,3.270994,-1.33E-13,,
,3.272994,1.89E-13,,
,3.274994,-2.53E-14,,
,3.276994,-2.40E-13,,
,3.278994,-7.77E-13,,
,3.280994,-1.10E-12,,
,3.282994,-1.10E-12,,
,3.284994,-5.62E-13,,
,3.286994,1.89E-13,,
,3.288994,6.19E-13,,
,3.290994,5.11E-13,,
,3.292994,8.20E-14,,
,3.294994,-7.77E-13,,
,3.296994,-1.21E-12,,
,3.298994,-1.31E-12,,
,3.300994,-8.84E-13,,
,3.302994,-1.33E-13,,
,3.304994,4.04E-13,,
,3.306994,5.11E-13,,
,3.308994,-1.33E-13,,
,3.310994,-8.84E-13,,
,3.312994,-1.42E-12,,
,3.314994,-1.42E-12,,
,3.316994,-1.31E-12,,
,3.318994,-7.77E-13,,
,3.320994,-4.55E-13,,
,3.322994,-3.47E-13,,
,3.324994,-4.55E-13,,
,3.326994,-8.84E-13,,
,3.328994,-1.42E-12,,
,3.330994,-1.96E-12,,
,3.332994,-1.85E-12,,
,3.334994,-1.31E-12,,
,3.336994,-8.84E-13,,
,3.338994,-7.77E-13,,
,3.340994,-1.10E-12,,
,3.342994,-1.74E-12,,
,3.344994,-2.49E-12,,
,3.346994,-2.82E-12,,
,3.348994,-2.82E-12,,
,3.350994,-2.60E-12,,
,3.352994,-2.07E-12,,
,3.354994,-1.64E-12,,
,3.356994,-1.53E-12,,
,3.358994,-2.17E-12,,
,3.360994,-2.71E-12,,
,3.362994,-3.35E-12,,
,3.364994,-3.68E-12,,
,3.366994,-3.68E-12,,
,3.368994,-3.25E-12,,
,3.370994,-2.71E-12,,
,3.372994,-2.60E-12,,
,3.374994,-3.03E-12,,
,3.376994,-3.68E-12,,
,3.378994,-4.43E-12,,
,3.380994,-4.64E-12,,
,3.382994,-4.53E-12,,
,3.384994,-4.00E-12,,
,3.386994,-3.57E-12,,
,3.388994,-3.25E-12,,
,3.390994,-3.35E-12,,
,3.392994,-3.78E-12,,
,3.394994,-4.43E-12,,
,3.396994,-4.96E-12,,
,3.398994,-4.96E-12,,
,3.400994,-4.64E-12,,
,3.402994,-4.00E-12,,
,3.404994,-3.57E-12,,
,3.406994,-3.46E-12,,
,3.408994,-3.78E-12,,
,3.410994,-4.43E-12,,
,3.412994,-4.96E-12,,
,3.414994,-5.29E-12,,
,3.416994,-4.96E-12,,
,3.418994,-4.53E-12,,
,3.420994,-3.78E-12,,
,3.422994,-3.35E-12,,
,3.424994,-3.14E-12,,
,3.426994,-3.57E-12,,
,3.428994,-4.21E-12,,
,3.430994,-4.53E-12,,
,3.432994,-4.32E-12,,
,3.434994,-3.68E-12,,
,3.436994,-3.03E-12,,
,3.438994,-2.60E-12,,
,3.440994,-2.49E-12,,
,3.442994,-3.03E-12,,
,3.444994,-3.57E-12,,
,3.446994,-3.89E-12,,
,3.448994,-3.68E-12,,
,3.450994,-3.35E-12,,
,3.452994,-2.60E-12,,
,3.454994,-1.96E-12,,
,3.456994,-1.64E-12,,
,3.458994,-1.96E-12,,
,3.460994,-2.60E-12,,
,3.462994,-3.03E-12,,
,3.464994,-3.25E-12,,
,3.466994,-2.92E-12,,
,3.468994,-2.28E-12,,
,3.470994,-1.85E-12,,
,3.472994,-1.53E-12,,
,3.474994,-1.85E-12,,
,3.476994,-2.39E-12,,
,3.478994,-3.03E-12,,
,3.480994,-3.25E-12,,
,3.482994,-2.92E-12,,
,3.484994,-2.49E-12,,
,3.486994,-1.96E-12,,
,3.488994,-1.64E-12,,
,3.490994,-1.53E-12,,
,3.492994,-2.07E-12,,
,3.494994,-2.60E-12,,
,3.496994,-3.03E-12,,
,3.498994,-3.03E-12,,
,3.500994,-2.60E-12,,
,3.502994,-2.17E-12,,
,3.504994,-1.74E-12,,
,3.506994,-1.85E-12,,
,3.508994,-2.17E-12,,
,3.510994,-2.60E-12,,
,3.512994,-3.14E-12,,
,3.514994,-3.57E-12,,
,3.516994,-3.57E-12,,
,3.518994,-3.35E-12,,
,3.520994,-2.71E-12,,
,3.522994,-2.49E-12,,
,3.524994,-2.71E-12,,
,3.526994,-3.46E-12,,
,3.528994,-4.32E-12,,
,3.530994,-4.53E-12,,
,3.532994,-4.53E-12,,
,3.534994,-4.10E-12,,
,3.536994,-3.89E-12,,
,3.538994,-3.46E-12,,
,3.540994,-3.46E-12,,
,3.542994,-3.89E-12,,
,3.544994,-4.64E-12,,
,3.546994,-5.18E-12,,
,3.548994,-5.07E-12,,
,3.550994,-4.75E-12,,
,3.552994,-4.00E-12,,
,3.554994,-3.78E-12,,
,3.556994,-3.68E-12,,
,3.558994,-4.32E-12,,
,3.560994,-5.07E-12,,
,3.562994,-5.72E-12,,
,3.564994,-6.04E-12,,
,3.566994,-5.61E-12,,
,3.568994,-5.18E-12,,
,3.570994,-4.43E-12,,
,3.572994,-4.10E-12,,
,3.574994,-4.10E-12,,
,3.576994,-4.64E-12,,
,3.578994,-5.50E-12,,
,3.580994,-6.04E-12,,
,3.582994,-6.14E-12,,
,3.584994,-5.61E-12,,
,3.586994,-4.96E-12,,
,3.588994,-4.43E-12,,
,3.590994,-4.43E-12,,
,3.592994,-4.86E-12,,
,3.594994,-5.72E-12,,
,3.596994,-6.14E-12,,
,3.598994,-6.04E-12,,
,3.600994,-5.61E-12,,
,3.602994,-4.86E-12,,
,3.604994,-4.53E-12,,
,3.606994,-4.21E-12,,
,3.608994,-4.64E-12,,
,3.610994,-5.29E-12,,
,3.612994,-6.04E-12,,
,3.614994,-6.36E-12,,
,3.616994,-6.04E-12,,
,3.618994,-5.61E-12,,
,3.620994,-5.07E-12,,
,3.622994,-4.86E-12,,
,3.624994,-4.86E-12,,
,3.626994,-5.29E-12,,
,3.628994,-5.93E-12,,
,3.630994,-6.14E-12,,
,3.632994,-6.04E-12,,
,3.634994,-5.50E-12,,
,3.636994,-5.18E-12,,
,3.638994,-4.75E-12,,
,3.640994,-4.64E-12,,
,3.642994,-4.96E-12,,
,3.644994,-5.72E-12,,
,3.646994,-6.25E-12,,
,3.648994,-6.04E-12,,
,3.650994,-5.50E-12,,
,3.652994,-4.86E-12,,
,3.654994,-4.64E-12,,
,3.656994,-4.53E-12,,
,3.658994,-4.75E-12,,
,3.660994,-5.07E-12,,
,3.662994,-5.61E-12,,
,3.664994,-5.93E-12,,
,3.666994,-5.72E-12,,
,3.668994,-4.86E-12,,
,3.670994,-4.00E-12,,
,3.672994,-3.68E-12,,
,3.674994,-4.10E-12,,
,3.676994,-4.64E-12,,
,3.678994,-5.07E-12,,
,3.680994,-5.18E-12,,
,3.682994,-5.18E-12,,
,3.684994,-4.64E-12,,
,3.686994,-4.00E-12,,
,3.688994,-3.46E-12,,
,3.690994,-3.35E-12,,
,3.692994,-3.68E-12,,
,3.694994,-4.21E-12,,
,3.696994,-4.64E-12,,
,3.698994,-4.64E-12,,
,3.700994,-4.00E-12,,
,3.702994,-3.35E-12,,
,3.704994,-2.71E-12,,
,3.706994,-2.71E-12,,
,3.708994,-2.92E-12,,
,3.710994,-3.46E-12,,
,3.712994,-3.78E-12,,
,3.714994,-4.00E-12,,
,3.716994,-3.68E-12,,
,3.718994,-3.25E-12,,
,3.720994,-2.60E-12,,
,3.722994,-2.17E-12,,
,3.724994,-2.17E-12,,
,3.726994,-2.71E-12,,
,3.728994,-3.35E-12,,
,3.730994,-3.57E-12,,
,3.732994,-3.25E-12,,
,3.734994,-2.71E-12,,
,3.736994,-2.07E-12,,
,3.738994,-1.53E-12,,
,3.740994,-1.53E-12,,
,3.742994,-1.96E-12,,
,3.744994,-2.82E-12,,
,3.746994,-3.14E-12,,
,3.748994,-3.35E-12,,
,3.750994,-2.71E-12,,
,3.752994,-2.17E-12,,
,3.754994,-1.53E-12,,
,3.756994,-1.53E-12,,
,3.758994,-2.07E-12,,
,3.760994,-2.60E-12,,
,3.762994,-3.25E-12,,
,3.764994,-3.57E-12,,
,3.766994,-3.57E-12,,
,3.768994,-2.92E-12,,
,3.770994,-2.07E-12,,
,3.772994,-1.74E-12,,
,3.774994,-2.17E-12,,
,3.776994,-3.03E-12,,
,3.778994,-3.68E-12,,
,3.780994,-3.89E-12,,
,3.782994,-3.57E-12,,
,3.784994,-3.14E-12,,
,3.786994,-2.71E-12,,
,3.788994,-2.71E-12,,
,3.790994,-2.71E-12,,
,3.792994,-3.03E-12,,
,3.794994,-3.46E-12,,
,3.796994,-4.10E-12,,
,3.798994,-4.43E-12,,
,3.800994,-4.00E-12,,
,3.802994,-3.68E-12,,
,3.804994,-3.03E-12,,
,3.806994,-3.03E-12,,
,3.808994,-3.14E-12,,
,3.810994,-3.89E-12,,
,3.812994,-4.64E-12,,
,3.814994,-4.86E-12,,
,3.816994,-4.75E-12,,
,3.818994,-4.21E-12,,
,3.820994,-3.57E-12,,
,3.822994,-3.25E-12,,
,3.824994,-3.46E-12,,
,3.826994,-4.32E-12,,
,3.828994,-4.96E-12,,
,3.830994,-5.29E-12,,
,3.832994,-5.18E-12,,
,3.834994,-4.75E-12,,
,3.836994,-4.32E-12,,
,3.838994,-3.89E-12,,
,3.840994,-3.78E-12,,
,3.842994,-4.10E-12,,
,3.844994,-4.64E-12,,
,3.846994,-5.29E-12,,
,3.848994,-5.39E-12,,
,3.850994,-5.07E-12,,
,3.852994,-4.43E-12,,
,3.854994,-4.00E-12,,
,3.856994,-3.78E-12,,
,3.858994,-4.10E-12,,
,3.860994,-4.64E-12,,
,3.862994,-5.18E-12,,
,3.864994,-5.39E-12,,
,3.866994,-4.86E-12,,
,3.868994,-4.32E-12,,
,3.870994,-3.68E-12,,
,3.872994,-3.46E-12,,
,3.874994,-3.68E-12,,
,3.876994,-4.10E-12,,
,3.878994,-4.64E-12,,
,3.880994,-4.86E-12,,
,3.882994,-4.53E-12,,
,3.884994,-4.00E-12,,
,3.886994,-3.25E-12,,
,3.888994,-2.82E-12,,
,3.890994,-2.71E-12,,
,3.892994,-3.03E-12,,
,3.894994,-3.68E-12,,
,3.896994,-4.00E-12,,
,3.898994,-3.89E-12,,
,3.900994,-3.25E-12,,
,3.902994,-2.49E-12,,
,3.904994,-1.96E-12,,
,3.906994,-1.74E-12,,
,3.908994,-1.96E-12,,
,3.910994,-2.49E-12,,
,3.912994,-3.03E-12,,
,3.914994,-3.14E-12,,
,3.916994,-2.82E-12,,
,3.918994,-2.28E-12,,
,3.920994,-1.64E-12,,
,3.922994,-1.10E-12,,
,3.924994,-1.10E-12,,
,3.926994,-1.53E-12,,
,3.928994,-2.17E-12,,
,3.930994,-2.28E-12,,
,3.932994,-2.17E-12,,
,3.934994,-1.53E-12,,
,3.936994,-8.84E-13,,
,3.938994,-3.47E-13,,
,3.940994,-3.47E-13,,
,3.942994,-9.92E-13,,
,3.944994,-1.64E-12,,
,3.946994,-2.07E-12,,
,3.948994,-1.85E-12,,
,3.950994,-1.42E-12,,
,3.952994,-8.84E-13,,
,3.954994,-4.55E-13,,
,3.956994,-3.47E-13,,
,3.958994,-6.69E-13,,
,3.960994,-1.21E-12,,
,3.962994,-1.64E-12,,
,3.964994,-1.74E-12,,
,3.966994,-1.42E-12,,
,3.968994,-1.10E-12,,
,3.970994,-6.69E-13,,
,3.972994,-4.55E-13,,
,3.974994,-4.55E-13,,
,3.976994,-9.92E-13,,
,3.978994,-1.74E-12,,
,3.980994,-2.07E-12,,
,3.982994,-1.74E-12,,
,3.984994,-9.92E-13,,
,3.986994,-4.55E-13,,
,3.988994,-2.40E-13,,
,3.990994,-4.55E-13,,
,3.992994,-9.92E-13,,
,3.994994,-1.64E-12,,
,3.996994,-2.28E-12,,
,3.998994,-2.39E-12,,
,4.000994,-1.96E-12,,
,4.002994,-9.92E-13,,
,4.004994,-2.40E-13,,
,4.006994,-2.40E-13,,
,4.008994,-8.84E-13,,
,4.010994,-1.74E-12,,
,4.012994,-2.17E-12,,
,4.014994,-2.49E-12,,
,4.016994,-2.17E-12,,
,4.018994,-1.64E-12,,
,4.020994,-8.84E-13,,
,4.022994,-5.62E-13,,
,4.024994,-7.77E-13,,
,4.026994,-1.31E-12,,
,4.028994,-1.85E-12,,
,4.030994,-2.17E-12,,
,4.032994,-2.28E-12,,
,4.034994,-2.07E-12,,
,4.036994,-1.42E-12,,
,4.038994,-9.92E-13,,
,4.040994,-9.92E-13,,
,4.042994,-1.64E-12,,
,4.044994,-2.17E-12,,
,4.046994,-2.49E-12,,
,4.048994,-2.60E-12,,
,4.050994,-2.28E-12,,
,4.052994,-1.85E-12,,
,4.054994,-1.10E-12,,
,4.056994,-8.84E-13,,
,4.058994,-1.21E-12,,
,4.060994,-2.07E-12,,
,4.062994,-2.49E-12,,
,4.064994,-2.82E-12,,
,4.066994,-2.49E-12,,
,4.068994,-2.07E-12,,
,4.070994,-1.53E-12,,
,4.072994,-1.31E-12,,
,4.074994,-1.42E-12,,
,4.076994,-1.96E-12,,
,4.078994,-2.71E-12,,
,4.080994,-3.57E-12,,
,4.082994,-3.46E-12,,
,4.084994,-2.92E-12,,
,4.086994,-2.28E-12,,
,4.088994,-2.07E-12,,
,4.090994,-2.28E-12,,
,4.092994,-2.71E-12,,
,4.094994,-3.14E-12,,
,4.096994,-3.78E-12,,
,4.098994,-3.78E-12,,
,4.100994,-3.68E-12,,
,4.102994,-3.03E-12,,
,4.104994,-2.60E-12,,
,4.106994,-2.60E-12,,
,4.108994,-2.82E-12,,
,4.110994,-3.46E-12,,
,4.112994,-3.89E-12,,
,4.114994,-4.21E-12,,
,4.116994,-4.10E-12,,
,4.118994,-3.57E-12,,
,4.120994,-3.03E-12,,
,4.122994,-2.92E-12,,
,4.124994,-3.14E-12,,
,4.126994,-4.00E-12,,
,4.128994,-4.43E-12,,
,4.130994,-5.07E-12,,
,4.132994,-4.75E-12,,
,4.134994,-4.32E-12,,
,4.136994,-3.46E-12,,
,4.138994,-3.03E-12,,
,4.140994,-3.03E-12,,
,4.142994,-3.68E-12,,
,4.144994,-4.43E-12,,
,4.146994,-4.96E-12,,
,4.148994,-4.96E-12,,
,4.150994,-4.43E-12,,
,4.152994,-3.89E-12,,
,4.154994,-3.46E-12,,
,4.156994,-3.25E-12,,
,4.158994,-3.35E-12,,
,4.160994,-3.57E-12,,
,4.162994,-4.32E-12,,
,4.164994,-4.64E-12,,
,4.166994,-4.75E-12,,
,4.168994,-3.89E-12,,
,4.170994,-3.25E-12,,
,4.172994,-2.82E-12,,
,4.174994,-3.14E-12,,
,4.176994,-3.68E-12,,
,4.178994,-4.32E-12,,
,4.180994,-4.43E-12,,
,4.182994,-4.10E-12,,
,4.184994,-3.68E-12,,
,4.186994,-3.14E-12,,
,4.188994,-2.92E-12,,
,4.190994,-2.49E-12,,
,4.192994,-2.92E-12,,
,4.194994,-3.46E-12,,
,4.196994,-4.32E-12,,
,4.198994,-4.32E-12,,
,4.200994,-3.89E-12,,
,4.202994,-2.92E-12,,
,4.204994,-2.49E-12,,
,4.206994,-2.28E-12,,
,4.208994,-2.82E-12,,
,4.210994,-3.57E-12,,
,4.212994,-3.89E-12,,
,4.214994,-3.89E-12,,
,4.216994,-3.68E-12,,
,4.218994,-3.35E-12,,
,4.220994,-2.82E-12,,
,4.222994,-2.39E-12,,
,4.224994,-2.60E-12,,
,4.226994,-3.25E-12,,
,4.228994,-3.89E-12,,
,4.230994,-4.43E-12,,
,4.232994,-4.32E-12,,
,4.234994,-3.78E-12,,
,4.236994,-2.92E-12,,
,4.238994,-2.39E-12,,
,4.240994,-2.17E-12,,
,4.242994,-2.71E-12,,
,4.244994,-3.25E-12,,
,4.246994,-3.78E-12,,
,4.248994,-3.68E-12,,
,4.250994,-3.46E-12,,
,4.252994,-2.92E-12,,
,4.254994,-2.17E-12,,
,4.256994,-1.96E-12,,
,4.258994,-2.07E-12,,
,4.260994,-2.82E-12,,
,4.262994,-3.25E-12,,
,4.264994,-3.35E-12,,
,4.266994,-3.35E-12,,
,4.268994,-2.60E-12,,
,4.270994,-2.28E-12,,
,4.272994,-1.74E-12,,
,4.274994,-1.96E-12,,
,4.276994,-2.49E-12,,
,4.278994,-3.03E-12,,
,4.280994,-3.46E-12,,
,4.282994,-3.14E-12,,
,4.284994,-2.60E-12,,
,4.286994,-2.07E-12,,
,4.288994,-1.53E-12,,
,4.290994,-1.53E-12,,
,4.292994,-1.85E-12,,
,4.294994,-2.60E-12,,
,4.296994,-3.25E-12,,
,4.298994,-3.25E-12,,
,4.300994,-2.92E-12,,
,4.302994,-2.28E-12,,
,4.304994,-1.74E-12,,
,4.306994,-1.53E-12,,
,4.308994,-1.74E-12,,
,4.310994,-2.60E-12,,
,4.312994,-3.14E-12,,
,4.314994,-3.78E-12,,
,4.316994,-3.78E-12,,
,4.318994,-3.46E-12,,
,4.320994,-2.71E-12,,
,4.322994,-2.39E-12,,
,4.324994,-2.71E-12,,
,4.326994,-3.57E-12,,
,4.328994,-4.32E-12,,
,4.330994,-4.75E-12,,
,4.332994,-4.75E-12,,
,4.334994,-4.43E-12,,
,4.336994,-3.78E-12,,
,4.338994,-3.46E-12,,
,4.340994,-3.46E-12,,
,4.342994,-4.21E-12,,
,4.344994,-4.75E-12,,
,4.346994,-5.39E-12,,
,4.348994,-5.61E-12,,
,4.350994,-5.50E-12,,
,4.352994,-4.86E-12,,
,4.354994,-4.32E-12,,
,4.356994,-4.21E-12,,
,4.358994,-4.64E-12,,
,4.360994,-5.29E-12,,
,4.362994,-5.93E-12,,
,4.364994,-6.36E-12,,
,4.366994,-6.47E-12,,
,4.368994,-5.82E-12,,
,4.370994,-5.29E-12,,
,4.372994,-4.64E-12,,
,4.374994,-4.86E-12,,
,4.376994,-5.29E-12,,
,4.378994,-5.93E-12,,
,4.380994,-6.47E-12,,
,4.382994,-6.57E-12,,
,4.384994,-6.47E-12,,
,4.386994,-5.93E-12,,
,4.388994,-5.50E-12,,
,4.390994,-5.82E-12,,
,4.392994,-6.25E-12,,
,4.394994,-7.00E-12,,
,4.396994,-7.11E-12,,
,4.398994,-7.33E-12,,
,4.400994,-7.00E-12,,
,4.402994,-6.68E-12,,
,4.404994,-6.36E-12,,
,4.406994,-6.47E-12,,
,4.408994,-6.68E-12,,
,4.410994,-7.33E-12,,
,4.412994,-7.97E-12,,
,4.414994,-8.51E-12,,
,4.416994,-8.51E-12,,
,4.418994,-7.97E-12,,
,4.420994,-7.43E-12,,
,4.422994,-7.11E-12,,
,4.424994,-7.33E-12,,
,4.426994,-7.97E-12,,
,4.428994,-8.51E-12,,
,4.430994,-8.94E-12,,
,4.432994,-9.04E-12,,
,4.434994,-8.61E-12,,
,4.436994,-8.08E-12,,
,4.438994,-7.54E-12,,
,4.440994,-7.86E-12,,
,4.442994,-8.29E-12,,
,4.444994,-8.94E-12,,
,4.446994,-9.47E-12,,
,4.448994,-9.69E-12,,
,4.450994,-9.47E-12,,
,4.452994,-8.94E-12,,
,4.454994,-8.40E-12,,
,4.456994,-8.40E-12,,
,4.458994,-8.83E-12,,
,4.460994,-9.58E-12,,
,4.462994,-1.01E-11,,
,4.464994,-1.03E-11,,
,4.466994,-1.02E-11,,
,4.468994,-9.69E-12,,
,4.470994,-9.15E-12,,
,4.472994,-8.83E-12,,
,4.474994,-9.37E-12,,
,4.476994,-9.90E-12,,
,4.478994,-1.08E-11,,
,4.480994,-1.11E-11,,
,4.482994,-1.12E-11,,
,4.484994,-1.05E-11,,
,4.486994,-9.90E-12,,
,4.488994,-9.37E-12,,
,4.490994,-9.47E-12,,
,4.492994,-9.69E-12,,
,4.494994,-1.05E-11,,
,4.496994,-1.11E-11,,
,4.498994,-1.16E-11,,
,4.500994,-1.12E-11,,
,4.502994,-1.07E-11,,
,4.504994,-9.90E-12,,
,4.506994,-9.58E-12,,
,4.508994,-9.90E-12,,
,4.510994,-1.08E-11,,
,4.512994,-1.15E-11,,
,4.514994,-1.17E-11,,
,4.516994,-1.14E-11,,
,4.518994,-1.10E-11,,
,4.520994,-1.04E-11,,
,4.522994,-1.01E-11,,
,4.524994,-1.03E-11,,
,4.526994,-1.11E-11,,
,4.528994,-1.18E-11,,
,4.530994,-1.22E-11,,
,4.532994,-1.19E-11,,
,4.534994,-1.14E-11,,
,4.536994,-1.10E-11,,
,4.538994,-1.08E-11,,
,4.540994,-1.09E-11,,
,4.542994,-1.13E-11,,
,4.544994,-1.18E-11,,
,4.546994,-1.24E-11,,
,4.548994,-1.24E-11,,
,4.550994,-1.20E-11,,
,4.552994,-1.14E-11,,
,4.554994,-1.10E-11,,
,4.556994,-1.10E-11,,
,4.558994,-1.13E-11,,
,4.560994,-1.18E-11,,
,4.562994,-1.25E-11,,
,4.564994,-1.28E-11,,
,4.566994,-1.27E-11,,
,4.568994,-1.18E-11,,
,4.570994,-1.13E-11,,
,4.572994,-1.08E-11,,
,4.574994,-1.11E-11,,
,4.576994,-1.14E-11,,
,4.578994,-1.22E-11,,
,4.580994,-1.26E-11,,
,4.582994,-1.27E-11,,
,4.584994,-1.22E-11,,
,4.586994,-1.15E-11,,
,4.588994,-1.08E-11,,
,4.590994,-1.07E-11,,
,4.592994,-1.10E-11,,
,4.594994,-1.18E-11,,
,4.596994,-1.24E-11,,
,4.598994,-1.25E-11,,
,4.600994,-1.20E-11,,
,4.602994,-1.14E-11,,
,4.604994,-1.08E-11,,
,4.606994,-1.05E-11,,
,4.608994,-1.09E-11,,
,4.610994,-1.16E-11,,
,4.612994,-1.24E-11,,
,4.614994,-1.27E-11,,
,4.616994,-1.24E-11,,
,4.618994,-1.16E-11,,
,4.620994,-1.12E-11,,
,4.622994,-1.09E-11,,
,4.624994,-1.10E-11,,
,4.626994,-1.14E-11,,
,4.628994,-1.20E-11,,
,4.630994,-1.26E-11,,
,4.632994,-1.27E-11,,
,4.634994,-1.23E-11,,
,4.636994,-1.15E-11,,
,4.638994,-1.09E-11,,
,4.640994,-1.10E-11,,
,4.642994,-1.15E-11,,
,4.644994,-1.23E-11,,
,4.646994,-1.28E-11,,
,4.648994,-1.30E-11,,
,4.650994,-1.27E-11,,
,4.652994,-1.22E-11,,
,4.654994,-1.17E-11,,
,4.656994,-1.17E-11,,
,4.658994,-1.20E-11,,
,4.660994,-1.27E-11,,
,4.662994,-1.33E-11,,
,4.664994,-1.36E-11,,
,4.666994,-1.34E-11,,
,4.668994,-1.28E-11,,
,4.670994,-1.23E-11,,
,4.672994,-1.22E-11,,
,4.674994,-1.25E-11,,
,4.676994,-1.32E-11,,
,4.678994,-1.37E-11,,
,4.680994,-1.40E-11,,
,4.682994,-1.40E-11,,
,4.684994,-1.38E-11,,
,4.686994,-1.33E-11,,
,4.688994,-1.28E-11,,
,4.690994,-1.27E-11,,
,4.692994,-1.32E-11,,
,4.694994,-1.40E-11,,
,4.696994,-1.45E-11,,
,4.698994,-1.45E-11,,
,4.700994,-1.43E-11,,
,4.702994,-1.38E-11,,
,4.704994,-1.33E-11,,
,4.706994,-1.32E-11,,
,4.708994,-1.36E-11,,
,4.710994,-1.41E-11,,
,4.712994,-1.46E-11,,
,4.714994,-1.48E-11,,
,4.716994,-1.47E-11,,
,4.718994,-1.43E-11,,
,4.720994,-1.41E-11,,
,4.722994,-1.39E-11,,
,4.724994,-1.39E-11,,
,4.726994,-1.41E-11,,
,4.728994,-1.47E-11,,
,4.730994,-1.52E-11,,
,4.732994,-1.52E-11,,
,4.734994,-1.48E-11,,
,4.736994,-1.43E-11,,
,4.738994,-1.41E-11,,
,4.740994,-1.41E-11,,
,4.742994,-1.46E-11,,
,4.744994,-1.53E-11,,
,4.746994,-1.56E-11,,
,4.748994,-1.58E-11,,
,4.750994,-1.56E-11,,
,4.752994,-1.52E-11,,
,4.754994,-1.44E-11,,
,4.756994,-1.40E-11,,
,4.758994,-1.44E-11,,
,4.760994,-1.53E-11,,
,4.762994,-1.63E-11,,
,4.764994,-1.68E-11,,
,4.766994,-1.67E-11,,
,4.768994,-1.60E-11,,
,4.770994,-1.52E-11,,
,4.772994,-1.46E-11,,
,4.774994,-1.46E-11,,
,4.776994,-1.53E-11,,
,4.778994,-1.61E-11,,
,4.780994,-1.66E-11,,
,4.782994,-1.66E-11,,
,4.784994,-1.63E-11,,
,4.786994,-1.59E-11,,
,4.788994,-1.57E-11,,
,4.790994,-1.55E-11,,
,4.792994,-1.61E-11,,
,4.794994,-1.69E-11,,
,4.796994,-1.75E-11,,
,4.798994,-1.74E-11,,
,4.800994,-1.70E-11,,
,4.802994,-1.65E-11,,
,4.804994,-1.62E-11,,
,4.806994,-1.60E-11,,
,4.808994,-1.67E-11,,
,4.810994,-1.73E-11,,
,4.812994,-1.81E-11,,
,4.814994,-1.83E-11,,
,4.816994,-1.82E-11,,
,4.818994,-1.78E-11,,
,4.820994,-1.75E-11,,
,4.822994,-1.72E-11,,
,4.824994,-1.74E-11,,
,4.826994,-1.80E-11,,
,4.828994,-1.88E-11,,
,4.830994,-1.96E-11,,
,4.832994,-1.98E-11,,
,4.834994,-1.96E-11,,
,4.836994,-1.88E-11,,
,4.838994,-1.84E-11,,
,4.840994,-1.86E-11,,
,4.842994,-1.92E-11,,
,4.844994,-1.98E-11,,
,4.846994,-2.02E-11,,
,4.848994,-2.04E-11,,
,4.850994,-2.03E-11,,
,4.852994,-2.00E-11,,
,4.854994,-1.96E-11,,
,4.856994,-1.96E-11,,
,4.858994,-1.99E-11,,
,4.860994,-2.07E-11,,
,4.862994,-2.16E-11,,
,4.864994,-2.20E-11,,
,4.866994,-2.17E-11,,
,4.868994,-2.11E-11,,
,4.870994,-2.04E-11,,
,4.872994,-2.02E-11,,
,4.874994,-2.03E-11,,
,4.876994,-2.09E-11,,
,4.878994,-2.15E-11,,
,4.880994,-2.20E-11,,
,4.882994,-2.21E-11,,
,4.884994,-2.17E-11,,
,4.886994,-2.11E-11,,
,4.888994,-2.05E-11,,
,4.890994,-2.04E-11,,
,4.892994,-2.09E-11,,
,4.894994,-2.15E-11,,
,4.896994,-2.20E-11,,
,4.898994,-2.21E-11,,
,4.900994,-2.15E-11,,
,4.902994,-2.07E-11,,
,4.904994,-1.99E-11,,
,4.906994,-1.96E-11,,
,4.908994,-1.99E-11,,
,4.910994,-2.03E-11,,
,4.912994,-2.09E-11,,
,4.914994,-2.07E-11,,
,4.916994,-2.03E-11,,
,4.918994,-1.95E-11,,
,4.920994,-1.85E-11,,
,4.922994,-1.81E-11,,
,4.924994,-1.81E-11,,
,4.926994,-1.85E-11,,
,4.928994,-1.89E-11,,
,4.930994,-1.91E-11,,
,4.932994,-1.90E-11,,
,4.934994,-1.83E-11,,
,4.936994,-1.71E-11,,
,4.938994,-1.62E-11,,
,4.940994,-1.59E-11,,
,4.942994,-1.61E-11,,
,4.944994,-1.63E-11,,
,4.946994,-1.63E-11,,
,4.948994,-1.62E-11,,
,4.950994,-1.56E-11,,
,4.952994,-1.47E-11,,
,4.954994,-1.38E-11,,
,4.956994,-1.33E-11,,
,4.958994,-1.34E-11,,
,4.960994,-1.37E-11,,
,4.962994,-1.38E-11,,
,4.964994,-1.38E-11,,
,4.966994,-1.34E-11,,
,4.968994,-1.26E-11,,
,4.970994,-1.15E-11,,
,4.972994,-1.10E-11,,
,4.974994,-1.09E-11,,
,4.976994,-1.11E-11,,
,4.978994,-1.12E-11,,
,4.980994,-1.12E-11,,
,4.982994,-1.09E-11,,
,4.984994,-1.02E-11,,
,4.986994,-9.47E-12,,
,4.988994,-8.83E-12,,
,4.990994,-8.72E-12,,
,4.992994,-9.04E-12,,
,4.994994,-9.47E-12,,
,4.996994,-9.69E-12,,
,4.998994,-9.47E-12,,
,5.000994,-8.94E-12,,
,5.002994,-8.18E-12,,
,5.004994,-7.54E-12,,
,5.006994,-7.00E-12,,
,5.008994,-7.00E-12,,
,5.010994,-7.43E-12,,
,5.012994,-7.97E-12,,
,5.014994,-8.08E-12,,
,5.016994,-7.54E-12,,
,5.018994,-6.68E-12,,
,5.020994,-5.82E-12,,
,5.022994,-5.39E-12,,
,5.024994,-5.29E-12,,
,5.026994,-5.72E-12,,
,5.028994,-6.04E-12,,
,5.030994,-6.47E-12,,
,5.032994,-6.04E-12,,
,5.034994,-5.39E-12,,
,5.036994,-4.53E-12,,
,5.038994,-3.78E-12,,
,5.040994,-3.46E-12,,
,5.042994,-3.46E-12,,
,5.044994,-3.89E-12,,
,5.046994,-4.10E-12,,
,5.048994,-4.00E-12,,
,5.050994,-3.68E-12,,
,5.052994,-2.92E-12,,
,5.054994,-2.17E-12,,
,5.056994,-1.42E-12,,
,5.058994,-1.42E-12,,
,5.060994,-1.42E-12,,
,5.062994,-1.53E-12,,
,5.064994,-1.31E-12,,
,5.066994,-8.84E-13,,
,5.068994,-2.53E-14,,
,5.070994,1.05E-12,,
,5.072994,1.69E-12,,
,5.074994,2.01E-12,,
,5.076994,1.80E-12,,
,5.078994,1.69E-12,,
,5.080994,1.37E-12,,
,5.082994,1.91E-12,,
,5.084994,2.66E-12,,
,5.086994,3.95E-12,,
,5.088994,4.70E-12,,
,5.090994,5.02E-12,,
,5.092994,4.91E-12,,
,5.094994,4.70E-12,,
,5.096994,4.70E-12,,
,5.098994,4.91E-12,,
,5.100994,5.66E-12,,
,5.102994,6.74E-12,,
,5.104994,7.92E-12,,
,5.106994,8.35E-12,,
,5.108994,8.35E-12,,
,5.110994,8.03E-12,,
,5.112994,7.92E-12,,
,5.114994,7.92E-12,,
,5.116994,8.13E-12,,
,5.118994,8.89E-12,,
,5.120994,9.85E-12,,
,5.122994,1.04E-11,,
,5.124994,1.03E-11,,
,5.126994,9.85E-12,,
,5.128994,9.53E-12,,
,5.130994,9.42E-12,,
,5.132994,9.53E-12,,
,5.134994,1.02E-11,,
,5.136994,1.09E-11,,
,5.138994,1.17E-11,,
,5.140994,1.19E-11,,
,5.142994,1.17E-11,,
,5.144994,1.12E-11,,
,5.146994,1.10E-11,,
,5.148994,1.12E-11,,
,5.150994,1.19E-11,,
,5.152994,1.26E-11,,
,5.154994,1.36E-11,,
,5.156994,1.40E-11,,
,5.158994,1.43E-11,,
,5.160994,1.36E-11,,
,5.162994,1.34E-11,,
,5.164994,1.34E-11,,
,5.166994,1.40E-11,,
,5.168994,1.49E-11,,
,5.170994,1.58E-11,,
,5.172994,1.64E-11,,
,5.174994,1.67E-11,,
,5.176994,1.64E-11,,
,5.178994,1.62E-11,,
,5.180994,1.61E-11,,
,5.182994,1.67E-11,,
,5.184994,1.75E-11,,
,5.186994,1.83E-11,,
,5.188994,1.90E-11,,
,5.190994,1.92E-11,,
,5.192994,1.90E-11,,
,5.194994,1.84E-11,,
,5.196994,1.82E-11,,
,5.198994,1.83E-11,,
,5.200994,1.89E-11,,
,5.202994,1.97E-11,,
,5.204994,2.02E-11,,
,5.206994,2.04E-11,,
,5.208994,1.98E-11,,
,5.210994,1.97E-11,,
,5.212994,1.94E-11,,
,5.214994,1.97E-11,,
,5.216994,1.98E-11,,
,5.218994,2.05E-11,,
,5.220994,2.10E-11,,
,5.222994,2.13E-11,,
,5.224994,2.13E-11,,
,5.226994,2.08E-11,,
,5.228994,2.03E-11,,
,5.230994,1.98E-11,,
,5.232994,1.99E-11,,
,5.234994,2.06E-11,,
,5.236994,2.12E-11,,
,5.238994,2.16E-11,,
,5.240994,2.16E-11,,
,5.242994,2.12E-11,,
,5.244994,2.07E-11,,
,5.246994,2.02E-11,,
,5.248994,1.98E-11,,
,5.250994,2.02E-11,,
,5.252994,2.07E-11,,
,5.254994,2.13E-11,,
,5.256994,2.16E-11,,
,5.258994,2.12E-11,,
,5.260994,2.05E-11,,
,5.262994,1.96E-11,,
,5.264994,1.92E-11,,
,5.266994,1.93E-11,,
,5.268994,1.96E-11,,
,5.270994,2.01E-11,,
,5.272994,2.03E-11,,
,5.274994,2.02E-11,,
,5.276994,1.96E-11,,
,5.278994,1.89E-11,,
,5.280994,1.83E-11,,
,5.282994,1.81E-11,,
,5.284994,1.83E-11,,
,5.286994,1.88E-11,,
,5.288994,1.92E-11,,
,5.290994,1.92E-11,,
,5.292994,1.88E-11,,
,5.294994,1.78E-11,,
,5.296994,1.72E-11,,
,5.298994,1.67E-11,,
,5.300994,1.70E-11,,
,5.302994,1.74E-11,,
,5.304994,1.79E-11,,
,5.306994,1.78E-11,,
,5.308994,1.75E-11,,
,5.310994,1.66E-11,,
,5.312994,1.61E-11,,
,5.314994,1.55E-11,,
,5.316994,1.58E-11,,
,5.318994,1.60E-11,,
,5.320994,1.65E-11,,
,5.322994,1.66E-11,,
,5.324994,1.66E-11,,
,5.326994,1.59E-11,,
,5.328994,1.50E-11,,
,5.330994,1.44E-11,,
,5.332994,1.44E-11,,
,5.334994,1.48E-11,,
,5.336994,1.51E-11,,
,5.338994,1.54E-11,,
,5.340994,1.51E-11,,
,5.342994,1.46E-11,,
,5.344994,1.39E-11,,
,5.346994,1.35E-11,,
,5.348994,1.34E-11,,
,5.350994,1.34E-11,,
,5.352994,1.38E-11,,
,5.354994,1.43E-11,,
,5.356994,1.45E-11,,
,5.358994,1.41E-11,,
,5.360994,1.35E-11,,
,5.362994,1.29E-11,,
,5.364994,1.25E-11,,
,5.366994,1.25E-11,,
,5.368994,1.31E-11,,
,5.370994,1.35E-11,,
,5.372994,1.38E-11,,
,5.374994,1.33E-11,,
,5.376994,1.24E-11,,
,5.378994,1.12E-11,,
,5.380994,1.08E-11,,
,5.382994,1.08E-11,,
,5.384994,1.12E-11,,
,5.386994,1.16E-11,,
,5.388994,1.18E-11,,
,5.390994,1.17E-11,,
,5.392994,1.10E-11,,
,5.394994,1.01E-11,,
,5.396994,9.42E-12,,
,5.398994,9.21E-12,,
,5.400994,9.42E-12,,
,5.402994,9.85E-12,,
,5.404994,1.01E-11,,
,5.406994,1.01E-11,,
,5.408994,9.53E-12,,
,5.410994,8.56E-12,,
,5.412994,7.92E-12,,
,5.414994,7.38E-12,,
,5.416994,7.49E-12,,
,5.418994,7.70E-12,,
,5.420994,8.03E-12,,
,5.422994,8.03E-12,,
,5.424994,7.60E-12,,
,5.426994,6.95E-12,,
,5.428994,6.20E-12,,
,5.430994,5.56E-12,,
,5.432994,5.24E-12,,
,5.434994,5.56E-12,,
,5.436994,5.99E-12,,
,5.438994,6.42E-12,,
,5.440994,5.99E-12,,
,5.442994,5.34E-12,,
,5.444994,4.38E-12,,
,5.446994,4.05E-12,,
,5.448994,3.84E-12,,
,5.450994,3.84E-12,,
,5.452994,4.05E-12,,
,5.454994,4.27E-12,,
,5.456994,4.38E-12,,
,5.458994,3.95E-12,,
,5.460994,3.30E-12,,
,5.462994,2.66E-12,,
,5.464994,2.23E-12,,
,5.466994,2.34E-12,,
,5.468994,2.55E-12,,
,5.470994,2.98E-12,,
,5.472994,2.77E-12,,
,5.474994,2.55E-12,,
,5.476994,1.69E-12,,
,5.478994,1.05E-12,,
,5.480994,2.97E-13,,
,5.482994,1.89E-13,,
,5.484994,4.04E-13,,
,5.486994,7.26E-13,,
,5.488994,1.05E-12,,
,5.490994,9.41E-13,,
,5.492994,5.11E-13,,
,5.494994,-5.62E-13,,
,5.496994,-1.42E-12,,
,5.498994,-1.74E-12,,
,5.500994,-1.64E-12,,
,5.502994,-9.92E-13,,
,5.504994,-8.84E-13,,
,5.506994,-7.77E-13,,
,5.508994,-1.53E-12,,
,5.510994,-2.07E-12,,
,5.512994,-2.71E-12,,
,5.514994,-2.92E-12,,
,5.516994,-2.92E-12,,
,5.518994,-2.71E-12,,
,5.520994,-2.28E-12,,
,5.522994,-2.07E-12,,
,5.524994,-2.28E-12,,
,5.526994,-3.03E-12,,
,5.528994,-3.57E-12,,
,5.530994,-4.10E-12,,
,5.532994,-4.10E-12,,
,5.534994,-3.89E-12,,
,5.536994,-3.46E-12,,
,5.538994,-3.03E-12,,
,5.540994,-3.25E-12,,
,5.542994,-3.57E-12,,
,5.544994,-4.43E-12,,
,5.546994,-4.86E-12,,
,5.548994,-5.29E-12,,
,5.550994,-4.86E-12,,
,5.552994,-4.43E-12,,
,5.554994,-3.78E-12,,
,5.556994,-3.78E-12,,
,5.558994,-4.21E-12,,
,5.560994,-5.07E-12,,
,5.562994,-5.50E-12,,
,5.564994,-5.93E-12,,
,5.566994,-5.61E-12,,
,5.568994,-5.29E-12,,
,5.570994,-4.43E-12,,
,5.572994,-4.00E-12,,
,5.574994,-4.21E-12,,
,5.576994,-4.75E-12,,
,5.578994,-5.39E-12,,
,5.580994,-5.50E-12,,
,5.582994,-5.61E-12,,
,5.584994,-5.39E-12,,
,5.586994,-5.29E-12,,
,5.588994,-5.07E-12,,
,5.590994,-4.75E-12,,
,5.592994,-5.07E-12,,
,5.594994,-5.50E-12,,
,5.596994,-6.25E-12,,
,5.598994,-6.36E-12,,
,5.600994,-6.14E-12,,
,5.602994,-5.72E-12,,
,5.604994,-5.29E-12,,
,5.606994,-5.07E-12,,
,5.608994,-5.07E-12,,
,5.610994,-5.50E-12,,
,5.612994,-6.04E-12,,
,5.614994,-6.47E-12,,
,5.616994,-6.25E-12,,
,5.618994,-5.82E-12,,
,5.620994,-5.18E-12,,
,5.622994,-4.53E-12,,
,5.624994,-4.43E-12,,
,5.626994,-4.64E-12,,
,5.628994,-5.18E-12,,
,5.630994,-5.29E-12,,
,5.632994,-5.29E-12,,
,5.634994,-4.96E-12,,
,5.636994,-4.32E-12,,
,5.638994,-3.78E-12,,
,5.640994,-3.68E-12,,
,5.642994,-4.00E-12,,
,5.644994,-4.32E-12,,
,5.646994,-4.43E-12,,
,5.648994,-4.75E-12,,
,5.650994,-4.43E-12,,
,5.652994,-4.00E-12,,
,5.654994,-3.14E-12,,
,5.656994,-2.71E-12,,
,5.658994,-2.92E-12,,
,5.660994,-3.46E-12,,
,5.662994,-3.89E-12,,
,5.664994,-3.78E-12,,
,5.666994,-3.35E-12,,
,5.668994,-2.82E-12,,
,5.670994,-2.17E-12,,
,5.672994,-1.64E-12,,
,5.674994,-1.42E-12,,
,5.676994,-1.74E-12,,
,5.678994,-2.17E-12,,
,5.680994,-2.49E-12,,
,5.682994,-2.28E-12,,
,5.684994,-1.85E-12,,
,5.686994,-1.21E-12,,
,5.688994,-6.69E-13,,
,5.690994,-4.55E-13,,
,5.692994,-6.69E-13,,
,5.694994,-1.21E-12,,
,5.696994,-1.64E-12,,
,5.698994,-1.74E-12,,
,5.700994,-1.53E-12,,
,5.702994,-9.92E-13,,
,5.704994,-3.47E-13,,
,5.706994,8.20E-14,,
,5.708994,8.20E-14,,
,5.710994,-4.55E-13,,
,5.712994,-9.92E-13,,
,5.714994,-1.21E-12,,
,5.716994,-9.92E-13,,
,5.718994,-4.55E-13,,
,5.720994,1.89E-13,,
,5.722994,2.97E-13,,
,5.724994,8.20E-14,,
,5.726994,-6.69E-13,,
,5.728994,-1.10E-12,,
,5.730994,-1.42E-12,,
,5.732994,-1.31E-12,,
,5.734994,-8.84E-13,,
,5.736994,-4.55E-13,,
,5.738994,1.89E-13,,
,5.740994,8.20E-14,,
,5.742994,-3.47E-13,,
,5.744994,-1.42E-12,,
,5.746994,-1.85E-12,,
,5.748994,-1.96E-12,,
,5.750994,-1.64E-12,,
,5.752994,-1.10E-12,,
,5.754994,-6.69E-13,,
,5.756994,-3.47E-13,,
,5.758994,-7.77E-13,,
,5.760994,-1.31E-12,,
,5.762994,-2.07E-12,,
,5.764994,-2.49E-12,,
,5.766994,-2.39E-12,,
,5.768994,-1.85E-12,,
,5.770994,-1.42E-12,,
,5.772994,-1.21E-12,,
,5.774994,-1.53E-12,,
,5.776994,-2.07E-12,,
,5.778994,-2.71E-12,,
,5.780994,-3.14E-12,,
,5.782994,-3.14E-12,,
,5.784994,-2.82E-12,,
,5.786994,-2.28E-12,,
,5.788994,-1.74E-12,,
,5.790994,-1.85E-12,,
,5.792994,-2.49E-12,,
,5.794994,-3.35E-12,,
,5.796994,-4.10E-12,,
,5.798994,-4.21E-12,,
,5.800994,-3.68E-12,,
,5.802994,-3.14E-12,,
,5.804994,-2.71E-12,,
,5.806994,-2.71E-12,,
,5.808994,-2.82E-12,,
,5.810994,-3.46E-12,,
,5.812994,-4.10E-12,,
,5.814994,-4.43E-12,,
,5.816994,-4.32E-12,,
,5.818994,-3.89E-12,,
,5.820994,-3.46E-12,,
,5.822994,-3.14E-12,,
,5.824994,-3.35E-12,,
,5.826994,-3.78E-12,,
,5.828994,-4.21E-12,,
,5.830994,-4.53E-12,,
,5.832994,-4.43E-12,,
,5.834994,-4.10E-12,,
,5.836994,-3.57E-12,,
,5.838994,-3.14E-12,,
,5.840994,-2.92E-12,,
,5.842994,-3.14E-12,,
,5.844994,-3.78E-12,,
,5.846994,-4.32E-12,,
,5.848994,-4.32E-12,,
,5.850994,-3.78E-12,,
,5.852994,-3.14E-12,,
,5.854994,-2.60E-12,,
,5.856994,-2.39E-12,,
,5.858994,-2.49E-12,,
,5.860994,-3.03E-12,,
,5.862994,-3.68E-12,,
,5.864994,-3.89E-12,,
,5.866994,-3.57E-12,,
,5.868994,-2.92E-12,,
,5.870994,-2.39E-12,,
,5.872994,-2.07E-12,,
,5.874994,-2.17E-12,,
,5.876994,-2.60E-12,,
,5.878994,-3.35E-12,,
,5.880994,-3.57E-12,,
,5.882994,-3.57E-12,,
,5.884994,-3.25E-12,,
,5.886994,-2.82E-12,,
,5.888994,-2.28E-12,,
,5.890994,-1.85E-12,,
,5.892994,-2.07E-12,,
,5.894994,-2.92E-12,,
,5.896994,-3.46E-12,,
,5.898994,-3.57E-12,,
,5.900994,-3.03E-12,,
,5.902994,-2.49E-12,,
,5.904994,-1.85E-12,,
,5.906994,-1.64E-12,,
,5.908994,-1.96E-12,,
,5.910994,-2.71E-12,,
,5.912994,-3.25E-12,,
,5.914994,-3.46E-12,,
,5.916994,-3.25E-12,,
,5.918994,-2.60E-12,,
,5.920994,-1.96E-12,,
,5.922994,-1.42E-12,,
,5.924994,-1.53E-12,,
,5.926994,-1.85E-12,,
,5.928994,-2.39E-12,,
,5.930994,-2.60E-12,,
,5.932994,-2.39E-12,,
,5.934994,-1.74E-12,,
,5.936994,-9.92E-13,,
,5.938994,-4.55E-13,,
,5.940994,-4.55E-13,,
,5.942994,-8.84E-13,,
,5.944994,-1.42E-12,,
,5.946994,-1.96E-12,,
,5.948994,-1.96E-12,,
,5.950994,-1.85E-12,,
,5.952994,-1.21E-12,,
,5.954994,-5.62E-13,,
,5.956994,-1.33E-13,,
,5.958994,-3.47E-13,,
,5.960994,-9.92E-13,,
,5.962994,-1.64E-12,,
,5.964994,-1.85E-12,,
,5.966994,-1.42E-12,,
,5.968994,-8.84E-13,,
,5.970994,-1.33E-13,,
,5.972994,-2.53E-14,,
,5.974994,-2.53E-14,,
,5.976994,-7.77E-13,,
,5.978994,-1.21E-12,,
,5.980994,-1.53E-12,,
,5.982994,-1.42E-12,,
,5.984994,-9.92E-13,,
,5.986994,-3.47E-13,,
,5.988994,8.20E-14,,
,5.990994,-2.53E-14,,
,5.992994,-5.62E-13,,
,5.994994,-1.10E-12,,
,5.996994,-1.64E-12,,
,5.998994,-1.85E-12,,
,6.000994,-1.74E-12,,
,6.002994,-1.31E-12,,
,6.004994,-7.77E-13,,
,6.006994,-3.47E-13,,
,6.008994,-5.62E-13,,
,6.010994,-1.10E-12,,
,6.012994,-1.64E-12,,
,6.014994,-1.85E-12,,
,6.016994,-1.85E-12,,
,6.018994,-1.53E-12,,
,6.020994,-8.84E-13,,
,6.022994,-3.47E-13,,
,6.024994,-4.55E-13,,
,6.026994,-9.92E-13,,
,6.028994,-1.85E-12,,
,6.030994,-2.17E-12,,
,6.032994,-2.17E-12,,
,6.034994,-1.64E-12,,
,6.036994,-9.92E-13,,
,6.038994,-5.62E-13,,
,6.040994,-3.47E-13,,
,6.042994,-8.84E-13,,
,6.044994,-1.53E-12,,
,6.046994,-2.17E-12,,
,6.048994,-2.17E-12,,
,6.050994,-1.64E-12,,
,6.052994,-9.92E-13,,
,6.054994,-3.47E-13,,
,6.056994,-2.53E-14,,
,6.058994,-3.47E-13,,
,6.060994,-1.10E-12,,
,6.062994,-1.85E-12,,
,6.064994,-1.85E-12,,
,6.066994,-1.64E-12,,
,6.068994,-9.92E-13,,
,6.070994,-5.62E-13,,
,6.072994,-2.53E-14,,
,6.074994,-3.47E-13,,
,6.076994,-6.69E-13,,
,6.078994,-1.21E-12,,
,6.080994,-1.53E-12,,
,6.082994,-1.64E-12,,
,6.084994,-1.31E-12,,
,6.086994,-6.69E-13,,
,6.088994,-2.40E-13,,
,6.090994,-2.40E-13,,
,6.092994,-5.62E-13,,
,6.094994,-8.84E-13,,
,6.096994,-1.42E-12,,
,6.098994,-1.42E-12,,
,6.100994,-1.31E-12,,
,6.102994,-6.69E-13,,
,6.104994,-1.33E-13,,
,6.106994,8.20E-14,,
,6.108994,-2.53E-14,,
,6.110994,-5.62E-13,,
,6.112994,-1.21E-12,,
,6.114994,-1.53E-12,,
,6.116994,-1.53E-12,,
,6.118994,-6.69E-13,,
,6.120994,-2.53E-14,,
,6.122994,5.11E-13,,
,6.124994,1.89E-13,,
,6.126994,-2.40E-13,,
,6.128994,-9.92E-13,,
,6.130994,-1.42E-12,,
,6.132994,-1.64E-12,,
,6.134994,-1.10E-12,,
,6.136994,-3.47E-13,,
,6.138994,1.89E-13,,
,6.140994,8.20E-14,,
,6.142994,-4.55E-13,,
,6.144994,-9.92E-13,,
,6.146994,-1.31E-12,,
,6.148994,-1.42E-12,,
,6.150994,-1.21E-12,,
,6.152994,-7.77E-13,,
,6.154994,-1.33E-13,,
,6.156994,4.04E-13,,
,6.158994,2.97E-13,,
,6.160994,-2.40E-13,,
,6.162994,-8.84E-13,,
,6.164994,-1.21E-12,,
,6.166994,-1.21E-12,,
,6.168994,-8.84E-13,,
,6.170994,-5.62E-13,,
,6.172994,-1.33E-13,,
,6.174994,-1.33E-13,,
,6.176994,-2.53E-14,,
,6.178994,-4.55E-13,,
,6.180994,-6.69E-13,,
,6.182994,-7.77E-13,,
,6.184994,-3.47E-13,,
,6.186994,1.89E-13,,
,6.188994,9.41E-13,,
,6.190994,1.16E-12,,
,6.192994,9.41E-13,,
,6.194994,-2.53E-14,,
,6.196994,-6.69E-13,,
,6.198994,-1.10E-12,,
,6.200994,-6.69E-13,,
,6.202994,-1.33E-13,,
,6.204994,7.26E-13,,
,6.206994,1.05E-12,,
,6.208994,7.26E-13,,
,6.210994,-2.53E-14,,
,6.212994,-4.55E-13,,
,6.214994,-3.47E-13,,
,6.216994,-2.53E-14,,
,6.218994,2.97E-13,,
,6.220994,7.26E-13,,
,6.222994,1.16E-12,,
,6.224994,1.05E-12,,
,6.226994,6.19E-13,,
,6.228994,-2.53E-14,,
,6.230994,-3.47E-13,,
,6.232994,-3.47E-13,,
,6.234994,-2.53E-14,,
,6.236994,6.19E-13,,
,6.238994,1.05E-12,,
,6.240994,1.05E-12,,
,6.242994,6.19E-13,,
,6.244994,-2.40E-13,,
,6.246994,-8.84E-13,,
,6.248994,-1.21E-12,,
,6.250994,-7.77E-13,,
,6.252994,-2.40E-13,,
,6.254994,2.97E-13,,
,6.256994,5.11E-13,,
,6.258994,4.04E-13,,
,6.260994,-1.33E-13,,
,6.262994,-7.77E-13,,
,6.264994,-8.84E-13,,
,6.266994,-6.69E-13,,
,6.268994,-2.40E-13,,
,6.270994,8.20E-14,,
,6.272994,1.89E-13,,
,6.274994,2.97E-13,,
,6.276994,-1.33E-13,,
,6.278994,-6.69E-13,,
,6.280994,-1.21E-12,,
,6.282994,-1.21E-12,,
,6.284994,-7.77E-13,,
,6.286994,-1.33E-13,,
,6.288994,1.89E-13,,
,6.290994,4.04E-13,,
,6.292994,8.20E-14,,
,6.294994,-4.55E-13,,
,6.296994,-1.10E-12,,
,6.298994,-1.21E-12,,
,6.300994,-9.92E-13,,
,6.302994,-2.40E-13,,
,6.304994,1.89E-13,,
,6.306994,5.11E-13,,
,6.308994,1.89E-13,,
,6.310994,-2.40E-13,,
,6.312994,-9.92E-13,,
,6.314994,-1.53E-12,,
,6.316994,-1.64E-12,,
,6.318994,-9.92E-13,,
,6.320994,-4.55E-13,,
,6.322994,-1.33E-13,,
,6.324994,-3.47E-13,,
,6.326994,-8.84E-13,,
,6.328994,-1.42E-12,,
,6.330994,-1.74E-12,,
,6.332994,-1.53E-12,,
,6.334994,-1.21E-12,,
,6.336994,-6.69E-13,,
,6.338994,-3.47E-13,,
,6.340994,-3.47E-13,,
,6.342994,-6.69E-13,,
,6.344994,-1.21E-12,,
,6.346994,-1.53E-12,,
,6.348994,-1.64E-12,,
,6.350994,-1.31E-12,,
,6.352994,-7.77E-13,,
,6.354994,-4.55E-13,,
,6.356994,-1.33E-13,,
,6.358994,-4.55E-13,,
,6.360994,-7.77E-13,,
,6.362994,-1.31E-12,,
,6.364994,-1.31E-12,,
,6.366994,-1.10E-12,,
,6.368994,-6.69E-13,,
,6.370994,-1.33E-13,,
,6.372994,4.04E-13,,
,6.374994,6.19E-13,,
,6.376994,1.89E-13,,
,6.378994,-4.55E-13,,
,6.380994,-8.84E-13,,
,6.382994,-7.77E-13,,
,6.384994,-4.55E-13,,
,6.386994,8.20E-14,,
,6.388994,8.34E-13,,
,6.390994,1.16E-12,,
,6.392994,8.34E-13,,
,6.394994,8.20E-14,,
,6.396994,-5.62E-13,,
,6.398994,-7.77E-13,,
,6.400994,-6.69E-13,,
,6.402994,-1.33E-13,,
,6.404994,6.19E-13,,
,6.406994,9.41E-13,,
,6.408994,9.41E-13,,
,6.410994,4.04E-13,,
,6.412994,-1.33E-13,,
,6.414994,-3.47E-13,,
,6.416994,-2.40E-13,,
,6.418994,2.97E-13,,
,6.420994,8.34E-13,,
,6.422994,1.26E-12,,
,6.424994,1.05E-12,,
,6.426994,5.11E-13,,
,6.428994,-2.53E-14,,
,6.430994,-2.40E-13,,
,6.432994,-1.33E-13,,
,6.434994,-2.53E-14,,
,6.436994,4.04E-13,,
,6.438994,6.19E-13,,
,6.440994,7.26E-13,,
,6.442994,1.89E-13,,
,6.444994,-5.62E-13,,
,6.446994,-9.92E-13,,
,6.448994,-1.10E-12,,
,6.450994,-8.84E-13,,
,6.452994,-5.62E-13,,
,6.454994,-2.40E-13,,
,6.456994,-2.53E-14,,
,6.458994,-6.69E-13,,
,6.460994,-1.21E-12,,
,6.462994,-1.85E-12,,
,6.464994,-1.96E-12,,
,6.466994,-2.07E-12,,
,6.468994,-1.74E-12,,
,6.470994,-1.42E-12,,
,6.472994,-8.84E-13,,
,6.474994,-1.10E-12,,
,6.476994,-1.74E-12,,
,6.478994,-2.82E-12,,
,6.480994,-3.57E-12,,
,6.482994,-3.57E-12,,
,6.484994,-3.25E-12,,
,6.486994,-2.39E-12,,
,6.488994,-2.07E-12,,
,6.490994,-2.17E-12,,
,6.492994,-2.92E-12,,
,6.494994,-3.57E-12,,
,6.496994,-4.00E-12,,
,6.498994,-4.32E-12,,
,6.500994,-4.10E-12,,
,6.502994,-3.78E-12,,
,6.504994,-3.14E-12,,
,6.506994,-3.03E-12,,
,6.508994,-3.46E-12,,
,6.510994,-4.10E-12,,
,6.512994,-4.96E-12,,
,6.514994,-5.07E-12,,
,6.516994,-5.07E-12,,
,6.518994,-4.53E-12,,
,6.520994,-4.00E-12,,
,6.522994,-3.78E-12,,
,6.524994,-4.00E-12,,
,6.526994,-4.64E-12,,
,6.528994,-5.39E-12,,
,6.530994,-5.82E-12,,
,6.532994,-5.93E-12,,
,6.534994,-5.50E-12,,
,6.536994,-5.07E-12,,
,6.538994,-4.64E-12,,
,6.540994,-4.64E-12,,
,6.542994,-5.29E-12,,
,6.544994,-6.04E-12,,
,6.546994,-6.57E-12,,
,6.548994,-6.68E-12,,
,6.550994,-6.47E-12,,
,6.552994,-6.04E-12,,
,6.554994,-5.61E-12,,
,6.556994,-5.61E-12,,
,6.558994,-5.72E-12,,
,6.560994,-6.14E-12,,
,6.562994,-6.68E-12,,
,6.564994,-7.11E-12,,
,6.566994,-7.00E-12,,
,6.568994,-6.57E-12,,
,6.570994,-6.25E-12,,
,6.572994,-5.93E-12,,
,6.574994,-6.04E-12,,
,6.576994,-6.36E-12,,
,6.578994,-6.90E-12,,
,6.580994,-7.00E-12,,
,6.582994,-7.11E-12,,
,6.584994,-6.68E-12,,
,6.586994,-6.25E-12,,
,6.588994,-5.61E-12,,
,6.590994,-5.61E-12,,
,6.592994,-5.93E-12,,
,6.594994,-6.36E-12,,
,6.596994,-6.79E-12,,
,6.598994,-6.79E-12,,
,6.600994,-6.47E-12,,
,6.602994,-5.72E-12,,
,6.604994,-5.18E-12,,
,6.606994,-4.96E-12,,
,6.608994,-5.18E-12,,
,6.610994,-5.72E-12,,
,6.612994,-6.47E-12,,
,6.614994,-6.57E-12,,
,6.616994,-6.47E-12,,
,6.618994,-5.82E-12,,
,6.620994,-5.39E-12,,
,6.622994,-4.86E-12,,
,6.624994,-4.86E-12,,
,6.626994,-5.07E-12,,
,6.628994,-5.61E-12,,
,6.630994,-5.82E-12,,
,6.632994,-5.82E-12,,
,6.634994,-5.18E-12,,
,6.636994,-4.64E-12,,
,6.638994,-4.00E-12,,
,6.640994,-3.89E-12,,
,6.642994,-4.10E-12,,
,6.644994,-5.07E-12,,
,6.646994,-5.72E-12,,
,6.648994,-5.82E-12,,
,6.650994,-5.18E-12,,
,6.652994,-4.32E-12,,
,6.654994,-3.68E-12,,
,6.656994,-3.25E-12,,
,6.658994,-3.35E-12,,
,6.660994,-3.78E-12,,
,6.662994,-4.43E-12,,
,6.664994,-4.86E-12,,
,6.666994,-4.64E-12,,
,6.668994,-4.00E-12,,
,6.670994,-3.14E-12,,
,6.672994,-2.82E-12,,
,6.674994,-2.92E-12,,
,6.676994,-3.57E-12,,
,6.678994,-3.89E-12,,
,6.680994,-4.21E-12,,
,6.682994,-4.10E-12,,
,6.684994,-3.78E-12,,
,6.686994,-3.25E-12,,
,6.688994,-3.03E-12,,
,6.690994,-2.82E-12,,
,6.692994,-2.92E-12,,
,6.694994,-3.03E-12,,
,6.696994,-3.68E-12,,
,6.698994,-4.10E-12,,
,6.700994,-3.89E-12,,
,6.702994,-3.14E-12,,
,6.704994,-2.49E-12,,
,6.706994,-2.28E-12,,
,6.708994,-2.60E-12,,
,6.710994,-3.03E-12,,
,6.712994,-3.57E-12,,
,6.714994,-3.89E-12,,
,6.716994,-3.78E-12,,
,6.718994,-3.35E-12,,
,6.720994,-2.71E-12,,
,6.722994,-2.39E-12,,
,6.724994,-2.39E-12,,
,6.726994,-2.82E-12,,
,6.728994,-3.46E-12,,
,6.730994,-3.89E-12,,
,6.732994,-3.89E-12,,
,6.734994,-3.46E-12,,
,6.736994,-2.82E-12,,
,6.738994,-2.49E-12,,
,6.740994,-2.28E-12,,
,6.742994,-2.82E-12,,
,6.744994,-3.57E-12,,
,6.746994,-4.21E-12,,
,6.748994,-4.43E-12,,
,6.750994,-4.10E-12,,
,6.752994,-3.68E-12,,
,6.754994,-3.14E-12,,
,6.756994,-2.82E-12,,
,6.758994,-3.14E-12,,
,6.760994,-3.68E-12,,
,6.762994,-4.43E-12,,
,6.764994,-4.75E-12,,
,6.766994,-4.53E-12,,
,6.768994,-4.10E-12,,
,6.770994,-3.46E-12,,
,6.772994,-3.35E-12,,
,6.774994,-3.46E-12,,
,6.776994,-4.10E-12,,
,6.778994,-4.75E-12,,
,6.780994,-5.18E-12,,
,6.782994,-5.18E-12,,
,6.784994,-4.86E-12,,
,6.786994,-4.43E-12,,
,6.788994,-3.89E-12,,
,6.790994,-3.57E-12,,
,6.792994,-3.68E-12,,
,6.794994,-4.21E-12,,
,6.796994,-4.86E-12,,
,6.798994,-5.07E-12,,
,6.800994,-4.75E-12,,
,6.802994,-4.32E-12,,
,6.804994,-3.57E-12,,
,6.806994,-3.46E-12,,
,6.808994,-3.35E-12,,
,6.810994,-3.89E-12,,
,6.812994,-4.10E-12,,
,6.814994,-4.32E-12,,
,6.816994,-4.21E-12,,
,6.818994,-3.68E-12,,
,6.820994,-2.92E-12,,
,6.822994,-2.39E-12,,
,6.824994,-2.28E-12,,
,6.826994,-2.71E-12,,
,6.828994,-3.14E-12,,
,6.830994,-3.57E-12,,
,6.832994,-3.25E-12,,
,6.834994,-2.49E-12,,
,6.836994,-1.74E-12,,
,6.838994,-1.64E-12,,
,6.840994,-1.64E-12,,
,6.842994,-1.74E-12,,
,6.844994,-1.74E-12,,
,6.846994,-1.85E-12,,
,6.848994,-1.64E-12,,
,6.850994,-1.21E-12,,
,6.852994,-5.62E-13,,
,6.854994,8.20E-14,,
,6.856994,7.26E-13,,
,6.858994,6.19E-13,,
,6.860994,8.20E-14,,
,6.862994,-5.62E-13,,
,6.864994,-5.62E-13,,
,6.866994,-1.33E-13,,
,6.868994,8.34E-13,,
,6.870994,1.80E-12,,
,6.872994,2.34E-12,,
,6.874994,2.23E-12,,
,6.876994,1.80E-12,,
,6.878994,1.59E-12,,
,6.880994,1.59E-12,,
,6.882994,2.01E-12,,
,6.884994,2.55E-12,,
,6.886994,3.30E-12,,
,6.888994,3.73E-12,,
,6.890994,4.16E-12,,
,6.892994,3.95E-12,,
,6.894994,3.62E-12,,
,6.896994,3.20E-12,,
,6.898994,3.20E-12,,
,6.900994,3.52E-12,,
,6.902994,4.27E-12,,
,6.904994,5.02E-12,,
,6.906994,5.66E-12,,
,6.908994,5.56E-12,,
,6.910994,5.24E-12,,
,6.912994,4.59E-12,,
,6.914994,4.48E-12,,
,6.916994,4.70E-12,,
,6.918994,5.24E-12,,
,6.920994,5.77E-12,,
,6.922994,6.20E-12,,
,6.924994,6.09E-12,,
,6.926994,5.88E-12,,
,6.928994,5.24E-12,,
,6.930994,5.02E-12,,
,6.932994,4.91E-12,,
,6.934994,5.24E-12,,
,6.936994,5.88E-12,,
,6.938994,6.31E-12,,
,6.940994,6.74E-12,,
,6.942994,6.31E-12,,
,6.944994,5.77E-12,,
,6.946994,5.24E-12,,
,6.948994,5.24E-12,,
,6.950994,5.45E-12,,
,6.952994,5.99E-12,,
,6.954994,6.63E-12,,
,6.956994,7.06E-12,,
,6.958994,6.74E-12,,
,6.960994,6.42E-12,,
,6.962994,5.99E-12,,
,6.964994,5.88E-12,,
,6.966994,5.77E-12,,
,6.968994,6.31E-12,,
,6.970994,6.74E-12,,
,6.972994,7.27E-12,,
,6.974994,6.95E-12,,
,6.976994,6.85E-12,,
,6.978994,6.09E-12,,
,6.980994,5.99E-12,,
,6.982994,5.88E-12,,
,6.984994,6.31E-12,,
,6.986994,6.74E-12,,
,6.988994,7.06E-12,,
,6.990994,7.17E-12,,
,6.992994,6.85E-12,,
,6.994994,6.31E-12,,
,6.996994,5.77E-12,,
,6.998994,5.56E-12,,
,7.000994,5.99E-12,,
,7.002994,6.74E-12,,
,7.004994,7.38E-12,,
,7.006994,7.60E-12,,
,7.008994,7.38E-12,,
,7.010994,6.63E-12,,
,7.012994,6.09E-12,,
,7.014994,5.45E-12,,
,7.016994,5.88E-12,,
,7.018994,6.09E-12,,
,7.020994,6.95E-12,,
,7.022994,7.17E-12,,
,7.024994,7.17E-12,,
,7.026994,6.95E-12,,
,7.028994,6.42E-12,,
,7.030994,6.20E-12,,
,7.032994,5.66E-12,,
,7.034994,5.88E-12,,
,7.036994,6.42E-12,,
,7.038994,6.95E-12,,
,7.040994,7.17E-12,,
,7.042994,6.63E-12,,
,7.044994,6.09E-12,,
,7.046994,5.34E-12,,
,7.048994,5.02E-12,,
,7.050994,5.13E-12,,
,7.052994,5.56E-12,,
,7.054994,5.99E-12,,
,7.056994,6.20E-12,,
,7.058994,5.88E-12,,
,7.060994,5.34E-12,,
,7.062994,4.59E-12,,
,7.064994,4.27E-12,,
,7.066994,4.16E-12,,
,7.068994,4.38E-12,,
,7.070994,4.70E-12,,
,7.072994,4.81E-12,,
,7.074994,4.59E-12,,
,7.076994,3.84E-12,,
,7.078994,2.98E-12,,
,7.080994,2.34E-12,,
,7.082994,2.23E-12,,
,7.084994,2.44E-12,,
,7.086994,2.87E-12,,
,7.088994,3.41E-12,,
,7.090994,3.52E-12,,
,7.092994,2.77E-12,,
,7.094994,1.59E-12,,
,7.096994,6.19E-13,,
,7.098994,1.89E-13,,
,7.100994,8.20E-14,,
,7.102994,1.89E-13,,
,7.104994,5.11E-13,,
,7.106994,7.26E-13,,
,7.108994,2.97E-13,,
,7.110994,-4.55E-13,,
,7.112994,-1.31E-12,,
,7.114994,-1.74E-12,,
,7.116994,-1.96E-12,,
,7.118994,-1.74E-12,,
,7.120994,-9.92E-13,,
,7.122994,-5.62E-13,,
,7.124994,-6.69E-13,,
,7.126994,-1.64E-12,,
,7.128994,-2.60E-12,,
,7.130994,-3.46E-12,,
,7.132994,-3.57E-12,,
,7.134994,-3.35E-12,,
,7.136994,-2.82E-12,,
,7.138994,-2.60E-12,,
,7.140994,-2.49E-12,,
,7.142994,-3.03E-12,,
,7.144994,-3.68E-12,,
,7.146994,-4.21E-12,,
,7.148994,-4.43E-12,,
,7.150994,-4.21E-12,,
,7.152994,-3.89E-12,,
,7.154994,-3.25E-12,,
,7.156994,-3.14E-12,,
,7.158994,-3.57E-12,,
,7.160994,-4.43E-12,,
,7.162994,-4.96E-12,,
,7.164994,-5.29E-12,,
,7.166994,-5.07E-12,,
,7.168994,-4.96E-12,,
,7.170994,-4.43E-12,,
,7.172994,-4.21E-12,,
,7.174994,-4.43E-12,,
,7.176994,-4.96E-12,,
,7.178994,-5.72E-12,,
,7.180994,-5.82E-12,,
,7.182994,-5.72E-12,,
,7.184994,-5.29E-12,,
,7.186994,-4.75E-12,,
,7.188994,-4.32E-12,,
,7.190994,-4.43E-12,,
,7.192994,-4.86E-12,,
,7.194994,-5.72E-12,,
,7.196994,-6.14E-12,,
,7.198994,-6.47E-12,,
,7.200994,-6.04E-12,,
,7.202994,-5.50E-12,,
,7.204994,-4.86E-12,,
,7.206994,-4.53E-12,,
,7.208994,-4.64E-12,,
,7.210994,-5.18E-12,,
,7.212994,-5.82E-12,,
,7.214994,-6.25E-12,,
,7.216994,-6.25E-12,,
,7.218994,-5.93E-12,,
,7.220994,-5.29E-12,,
,7.222994,-4.64E-12,,
,7.224994,-4.43E-12,,
,7.226994,-4.86E-12,,
,7.228994,-5.72E-12,,
,7.230994,-6.36E-12,,
,7.232994,-6.25E-12,,
,7.234994,-5.50E-12,,
,7.236994,-4.64E-12,,
,7.238994,-3.89E-12,,
,7.240994,-3.68E-12,,
,7.242994,-3.89E-12,,
,7.244994,-4.53E-12,,
,7.246994,-5.07E-12,,
,7.248994,-5.18E-12,,
,7.250994,-4.86E-12,,
,7.252994,-4.21E-12,,
,7.254994,-3.25E-12,,
,7.256994,-3.03E-12,,
,7.258994,-3.14E-12,,
,7.260994,-4.10E-12,,
,7.262994,-4.43E-12,,
,7.264994,-4.75E-12,,
,7.266994,-4.32E-12,,
,7.268994,-3.68E-12,,
,7.270994,-2.92E-12,,
,7.272994,-2.28E-12,,
,7.274994,-2.17E-12,,
,7.276994,-2.49E-12,,
,7.278994,-3.25E-12,,
,7.280994,-3.35E-12,,
,7.282994,-3.03E-12,,
,7.284994,-2.39E-12,,
,7.286994,-1.74E-12,,
,7.288994,-9.92E-13,,
,7.290994,-6.69E-13,,
,7.292994,-8.84E-13,,
,7.294994,-1.53E-12,,
,7.296994,-1.85E-12,,
,7.298994,-1.85E-12,,
,7.300994,-1.42E-12,,
,7.302994,-6.69E-13,,
,7.304994,-2.53E-14,,
,7.306994,4.04E-13,,
,7.308994,6.19E-13,,
,7.310994,8.20E-14,,
,7.312994,-2.40E-13,,
,7.314994,-5.62E-13,,
,7.316994,-2.40E-13,,
,7.318994,1.89E-13,,
,7.320994,7.26E-13,,
,7.322994,1.48E-12,,
,7.324994,1.69E-12,,
,7.326994,1.48E-12,,
,7.328994,8.34E-13,,
,7.330994,4.04E-13,,
,7.332994,4.04E-13,,
,7.334994,7.26E-13,,
,7.336994,1.37E-12,,
,7.338994,1.80E-12,,
,7.340994,2.12E-12,,
,7.342994,1.91E-12,,
,7.344994,1.26E-12,,
,7.346994,7.26E-13,,
,7.348994,2.97E-13,,
,7.350994,6.19E-13,,
,7.352994,1.05E-12,,
,7.354994,1.80E-12,,
,7.356994,2.01E-12,,
,7.358994,1.91E-12,,
,7.360994,1.16E-12,,
,7.362994,6.19E-13,,
,7.364994,2.97E-13,,
,7.366994,6.19E-13,,
,7.368994,1.16E-12,,
,7.370994,1.80E-12,,
,7.372994,2.23E-12,,
,7.374994,2.34E-12,,
,7.376994,1.91E-12,,
,7.378994,1.37E-12,,
,7.380994,8.34E-13,,
,7.382994,7.26E-13,,
,7.384994,1.05E-12,,
,7.386994,1.80E-12,,
,7.388994,2.55E-12,,
,7.390994,2.66E-12,,
,7.392994,2.34E-12,,
,7.394994,1.59E-12,,
,7.396994,1.16E-12,,
,7.398994,9.41E-13,,
,7.400994,1.48E-12,,
,7.402994,2.12E-12,,
,7.404994,2.77E-12,,
,7.406994,2.87E-12,,
,7.408994,2.98E-12,,
,7.410994,2.44E-12,,
,7.412994,1.91E-12,,
,7.414994,1.37E-12,,
,7.416994,1.48E-12,,
,7.418994,1.91E-12,,
,7.420994,2.44E-12,,
,7.422994,2.98E-12,,
,7.424994,3.20E-12,,
,7.426994,2.98E-12,,
,7.428994,2.34E-12,,
,7.430994,1.91E-12,,
,7.432994,1.91E-12,,
,7.434994,2.23E-12,,
,7.436994,2.77E-12,,
,7.438994,2.87E-12,,
,7.440994,3.09E-12,,
,7.442994,2.66E-12,,
,7.444994,2.23E-12,,
,7.446994,1.80E-12,,
,7.448994,1.69E-12,,
,7.450994,1.91E-12,,
,7.452994,2.34E-12,,
,7.454994,2.98E-12,,
,7.456994,3.41E-12,,
,7.458994,3.20E-12,,
,7.460994,2.66E-12,,
,7.462994,2.01E-12,,
,7.464994,1.48E-12,,
,7.466994,1.48E-12,,
,7.468994,1.69E-12,,
,7.470994,2.55E-12,,
,7.472994,2.87E-12,,
,7.474994,3.20E-12,,
,7.476994,2.66E-12,,
,7.478994,2.34E-12,,
,7.480994,1.80E-12,,
,7.482994,2.01E-12,,
,7.484994,2.12E-12,,
,7.486994,2.87E-12,,
,7.488994,3.30E-12,,
,7.490994,3.62E-12,,
,7.492994,3.20E-12,,
,7.494994,2.66E-12,,
,7.496994,2.23E-12,,
,7.498994,2.12E-12,,
,7.500994,2.34E-12,,
,7.502994,2.98E-12,,
,7.504994,3.62E-12,,
,7.506994,3.84E-12,,
,7.508994,3.41E-12,,
,7.510994,2.87E-12,,
,7.512994,2.34E-12,,
,7.514994,2.01E-12,,
,7.516994,2.12E-12,,
,7.518994,2.44E-12,,
,7.520994,3.20E-12,,
,7.522994,3.62E-12,,
,7.524994,3.52E-12,,
,7.526994,2.87E-12,,
,7.528994,2.12E-12,,
,7.530994,1.80E-12,,
,7.532994,1.91E-12,,
,7.534994,2.12E-12,,
,7.536994,2.66E-12,,
,7.538994,2.98E-12,,
,7.540994,3.20E-12,,
,7.542994,2.87E-12,,
,7.544994,2.34E-12,,
,7.546994,1.80E-12,,
,7.548994,1.59E-12,,
,7.550994,1.48E-12,,
,7.552994,1.91E-12,,
,7.554994,2.23E-12,,
,7.556994,2.55E-12,,
,7.558994,2.23E-12,,
,7.560994,1.80E-12,,
,7.562994,1.05E-12,,
,7.564994,6.19E-13,,
,7.566994,6.19E-13,,
,7.568994,1.05E-12,,
,7.570994,1.48E-12,,
,7.572994,1.69E-12,,
,7.574994,1.59E-12,,
,7.576994,9.41E-13,,
,7.578994,4.04E-13,,
,7.580994,-2.53E-14,,
,7.582994,8.20E-14,,
,7.584994,1.89E-13,,
,7.586994,6.19E-13,,
,7.588994,9.41E-13,,
,7.590994,1.05E-12,,
,7.592994,6.19E-13,,
,7.594994,8.20E-14,,
,7.596994,-4.55E-13,,
,7.598994,-6.69E-13,,
,7.600994,-6.69E-13,,
,7.602994,-2.40E-13,,
,7.604994,1.89E-13,,
,7.606994,5.11E-13,,
,7.608994,1.89E-13,,
,7.610994,-4.55E-13,,
,7.612994,-9.92E-13,,
,7.614994,-1.53E-12,,
,7.616994,-1.42E-12,,
,7.618994,-1.31E-12,,
,7.620994,-6.69E-13,,
,7.622994,-3.47E-13,,
,7.624994,-3.47E-13,,
,7.626994,-8.84E-13,,
,7.628994,-1.42E-12,,
,7.630994,-1.85E-12,,
,7.632994,-2.07E-12,,
,7.634994,-1.96E-12,,
,7.636994,-1.31E-12,,
,7.638994,-6.69E-13,,
,7.640994,-5.62E-13,,
,7.642994,-8.84E-13,,
,7.644994,-1.42E-12,,
,7.646994,-1.96E-12,,
,7.648994,-2.28E-12,,
,7.650994,-2.17E-12,,
,7.652994,-1.64E-12,,
,7.654994,-1.42E-12,,
,7.656994,-1.10E-12,,
,7.658994,-1.10E-12,,
,7.660994,-1.42E-12,,
,7.662994,-1.96E-12,,
,7.664994,-2.49E-12,,
,7.666994,-2.28E-12,,
,7.668994,-1.64E-12,,
,7.670994,-9.92E-13,,
,7.672994,-4.55E-13,,
,7.674994,-6.69E-13,,
,7.676994,-8.84E-13,,
,7.678994,-1.53E-12,,
,7.680994,-1.85E-12,,
,7.682994,-1.96E-12,,
,7.684994,-1.64E-12,,
,7.686994,-9.92E-13,,
,7.688994,-4.55E-13,,
,7.690994,-2.40E-13,,
,7.692994,-5.62E-13,,
,7.694994,-9.92E-13,,
,7.696994,-1.21E-12,,
,7.698994,-1.31E-12,,
,7.700994,-8.84E-13,,
,7.702994,-3.47E-13,,
,7.704994,2.97E-13,,
,7.706994,2.97E-13,,
,7.708994,-1.33E-13,,
,7.710994,-5.62E-13,,
,7.712994,-6.69E-13,,
,7.714994,-5.62E-13,,
,7.716994,-2.40E-13,,
,7.718994,-2.53E-14,,
,7.720994,4.04E-13,,
,7.722994,8.34E-13,,
,7.724994,1.05E-12,,
,7.726994,8.34E-13,,
,7.728994,2.97E-13,,
,7.730994,-1.33E-13,,
,7.732994,8.20E-14,,
,7.734994,7.26E-13,,
,7.736994,1.69E-12,,
,7.738994,2.23E-12,,
,7.740994,2.34E-12,,
,7.742994,2.12E-12,,
,7.744994,1.59E-12,,
,7.746994,1.16E-12,,
,7.748994,9.41E-13,,
,7.750994,1.16E-12,,
,7.752994,1.59E-12,,
,7.754994,2.23E-12,,
,7.756994,2.55E-12,,
,7.758994,2.66E-12,,
,7.760994,2.23E-12,,
,7.762994,2.01E-12,,
,7.764994,1.80E-12,,
,7.766994,2.01E-12,,
,7.768994,2.44E-12,,
,7.770994,3.09E-12,,
,7.772994,3.62E-12,,
,7.774994,3.84E-12,,
,7.776994,3.62E-12,,
,7.778994,3.20E-12,,
,7.780994,2.98E-12,,
,7.782994,2.98E-12,,
,7.784994,3.41E-12,,
,7.786994,4.05E-12,,
,7.788994,4.70E-12,,
,7.790994,5.02E-12,,
,7.792994,4.91E-12,,
,7.794994,4.38E-12,,
,7.796994,4.05E-12,,
,7.798994,3.73E-12,,
,7.800994,4.16E-12,,
,7.802994,4.70E-12,,
,7.804994,5.56E-12,,
,7.806994,5.99E-12,,
,7.808994,6.20E-12,,
,7.810994,5.88E-12,,
,7.812994,5.66E-12,,
,7.814994,5.45E-12,,
,7.816994,5.66E-12,,
,7.818994,6.09E-12,,
,7.820994,6.52E-12,,
,7.822994,6.95E-12,,
,7.824994,7.17E-12,,
,7.826994,7.17E-12,,
,7.828994,6.74E-12,,
,7.830994,6.42E-12,,
,7.832994,6.42E-12,,
,7.834994,6.95E-12,,
,7.836994,7.49E-12,,
,7.838994,8.03E-12,,
,7.840994,8.35E-12,,
,7.842994,8.35E-12,,
,7.844994,7.81E-12,,
,7.846994,7.38E-12,,
,7.848994,7.17E-12,,
,7.850994,7.70E-12,,
,7.852994,8.13E-12,,
,7.854994,8.78E-12,,
,7.856994,8.89E-12,,
,7.858994,8.99E-12,,
,7.860994,8.78E-12,,
,7.862994,8.24E-12,,
,7.864994,8.03E-12,,
,7.866994,7.92E-12,,
,7.868994,8.56E-12,,
,7.870994,8.78E-12,,
,7.872994,9.21E-12,,
,7.874994,8.99E-12,,
,7.876994,8.67E-12,,
,7.878994,8.13E-12,,
,7.880994,7.81E-12,,
,7.882994,7.92E-12,,
,7.884994,8.24E-12,,
,7.886994,8.89E-12,,
,7.888994,9.31E-12,,
,7.890994,9.31E-12,,
,7.892994,8.89E-12,,
,7.894994,8.46E-12,,
,7.896994,8.03E-12,,
,7.898994,7.70E-12,,
,7.900994,7.81E-12,,
,7.902994,8.35E-12,,
,7.904994,8.89E-12,,
,7.906994,9.10E-12,,
,7.908994,8.78E-12,,
,7.910994,8.03E-12,,
,7.912994,7.38E-12,,
,7.914994,6.85E-12,,
,7.916994,7.17E-12,,
,7.918994,7.49E-12,,
,7.920994,8.13E-12,,
,7.922994,8.35E-12,,
,7.924994,8.35E-12,,
,7.926994,7.81E-12,,
,7.928994,7.38E-12,,
,7.930994,6.85E-12,,
,7.932994,6.85E-12,,
,7.934994,7.06E-12,,
,7.936994,7.27E-12,,
,7.938994,7.70E-12,,
,7.940994,7.70E-12,,
,7.942994,7.60E-12,,
,7.944994,6.85E-12,,
,7.946994,6.52E-12,,
,7.948994,6.42E-12,,
,7.950994,6.63E-12,,
,7.952994,6.95E-12,,
,7.954994,7.17E-12,,
,7.956994,7.38E-12,,
,7.958994,7.27E-12,,
,7.960994,7.06E-12,,
,7.962994,6.52E-12,,
,7.964994,6.09E-12,,
,7.966994,5.88E-12,,
,7.968994,6.31E-12,,
,7.970994,6.63E-12,,
,7.972994,6.95E-12,,
,7.974994,6.74E-12,,
,7.976994,6.42E-12,,
,7.978994,5.99E-12,,
,7.980994,5.56E-12,,
,7.982994,5.34E-12,,
,7.984994,5.45E-12,,
,7.986994,5.99E-12,,
,7.988994,6.42E-12,,
,7.990994,6.52E-12,,
,7.992994,6.31E-12,,
,7.994994,5.66E-12,,
,7.996994,5.02E-12,,
,7.998994,4.70E-12,,
,8.000994,4.81E-12,,
,8.002994,5.45E-12,,
,8.004994,5.99E-12,,
,8.006994,6.20E-12,,
,8.008994,5.88E-12,,
,8.010994,5.24E-12,,
,8.012994,4.70E-12,,
,8.014994,4.16E-12,,
,8.016994,4.27E-12,,
,8.018994,4.91E-12,,
,8.020994,5.66E-12,,
,8.022994,5.77E-12,,
,8.024994,5.45E-12,,
,8.026994,4.81E-12,,
,8.028994,4.38E-12,,
,8.030994,3.84E-12,,
,8.032994,3.73E-12,,
,8.034994,3.95E-12,,
,8.036994,4.81E-12,,
,8.038994,5.13E-12,,
,8.040994,5.24E-12,,
,8.042994,4.59E-12,,
,8.044994,3.95E-12,,
,8.046994,3.30E-12,,
,8.048994,2.98E-12,,
,8.050994,3.30E-12,,
,8.052994,3.62E-12,,
,8.054994,4.16E-12,,
,8.056994,4.48E-12,,
,8.058994,4.38E-12,,
,8.060994,3.62E-12,,
,8.062994,2.87E-12,,
,8.064994,2.55E-12,,
,8.066994,2.66E-12,,
,8.068994,3.20E-12,,
,8.070994,3.73E-12,,
,8.072994,4.05E-12,,
,8.074994,3.73E-12,,
,8.076994,3.09E-12,,
,8.078994,2.55E-12,,
,8.080994,2.01E-12,,
,8.082994,1.91E-12,,
,8.084994,1.91E-12,,
,8.086994,2.55E-12,,
,8.088994,3.09E-12,,
,8.090994,3.52E-12,,
,8.092994,3.20E-12,,
,8.094994,2.44E-12,,
,8.096994,1.69E-12,,
,8.098994,1.37E-12,,
,8.100994,1.69E-12,,
,8.102994,2.23E-12,,
,8.104994,2.87E-12,,
,8.106994,2.98E-12,,
,8.108994,2.66E-12,,
,8.110994,1.91E-12,,
,8.112994,1.48E-12,,
,8.114994,1.16E-12,,
,8.116994,1.16E-12,,
,8.118994,1.59E-12,,
,8.120994,2.23E-12,,
,8.122994,2.77E-12,,
,8.124994,2.66E-12,,
,8.126994,2.12E-12,,
,8.128994,1.48E-12,,
,8.130994,1.16E-12,,
,8.132994,1.26E-12,,
,8.134994,1.80E-12,,
,8.136994,2.23E-12,,
,8.138994,2.66E-12,,
,8.140994,2.66E-12,,
,8.142994,2.44E-12,,
,8.144994,2.01E-12,,
,8.146994,1.69E-12,,
,8.148994,1.69E-12,,
,8.150994,1.91E-12,,
,8.152994,2.34E-12,,
,8.154994,2.77E-12,,
,8.156994,3.20E-12,,
,8.158994,3.30E-12,,
,8.160994,2.98E-12,,
,8.162994,2.66E-12,,
,8.164994,2.12E-12,,
,8.166994,2.23E-12,,
,8.168994,2.66E-12,,
,8.170994,3.52E-12,,
,8.172994,3.95E-12,,
,8.174994,3.95E-12,,
,8.176994,3.52E-12,,
,8.178994,2.98E-12,,
,8.180994,2.55E-12,,
,8.182994,2.55E-12,,
,8.184994,2.98E-12,,
,8.186994,3.62E-12,,
,8.188994,4.27E-12,,
,8.190994,4.59E-12,,
,8.192994,4.38E-12,,
,8.194994,3.95E-12,,
,8.196994,3.52E-12,,
,8.198994,3.52E-12,,
,8.200994,3.73E-12,,
,8.202994,4.27E-12,,
,8.204994,4.70E-12,,
,8.206994,5.02E-12,,
,8.208994,5.02E-12,,
,8.210994,4.70E-12,,
,8.212994,4.16E-12,,
,8.214994,3.73E-12,,
,8.216994,3.95E-12,,
,8.218994,4.38E-12,,
,8.220994,5.02E-12,,
,8.222994,5.13E-12,,
,8.224994,5.13E-12,,
,8.226994,4.81E-12,,
,8.228994,4.38E-12,,
,8.230994,4.05E-12,,
,8.232994,3.84E-12,,
,8.234994,4.27E-12,,
,8.236994,5.02E-12,,
,8.238994,5.56E-12,,
,8.240994,5.88E-12,,
,8.242994,5.45E-12,,
,8.244994,5.02E-12,,
,8.246994,4.27E-12,,
,8.248994,4.16E-12,,
,8.250994,4.38E-12,,
,8.252994,4.91E-12,,
,8.254994,5.56E-12,,
,8.256994,5.77E-12,,
,8.258994,5.45E-12,,
,8.260994,4.81E-12,,
,8.262994,4.05E-12,,
,8.264994,4.05E-12,,
,8.266994,4.05E-12,,
,8.268994,4.81E-12,,
,8.270994,5.24E-12,,
,8.272994,5.66E-12,,
,8.274994,5.45E-12,,
,8.276994,4.91E-12,,
,8.278994,4.38E-12,,
,8.280994,4.05E-12,,
,8.282994,3.95E-12,,
,8.284994,4.27E-12,,
,8.286994,4.59E-12,,
,8.288994,5.13E-12,,
,8.290994,4.91E-12,,
,8.292994,4.59E-12,,
,8.294994,4.05E-12,,
,8.296994,3.73E-12,,
,8.298994,3.52E-12,,
,8.300994,3.62E-12,,
,8.302994,3.84E-12,,
,8.304994,4.38E-12,,
,8.306994,4.48E-12,,
,8.308994,4.48E-12,,
,8.310994,4.05E-12,,
,8.312994,3.52E-12,,
,8.314994,3.20E-12,,
,8.316994,3.20E-12,,
,8.318994,3.62E-12,,
,8.320994,3.95E-12,,
,8.322994,4.27E-12,,
,8.324994,4.27E-12,,
,8.326994,4.16E-12,,
,8.328994,3.41E-12,,
,8.330994,2.87E-12,,
,8.332994,2.66E-12,,
,8.334994,2.87E-12,,
,8.336994,3.41E-12,,
,8.338994,3.84E-12,,
,8.340994,4.05E-12,,
,8.342994,3.62E-12,,
,8.344994,2.87E-12,,
,8.346994,2.34E-12,,
,8.348994,2.01E-12,,
,8.350994,2.44E-12,,
,8.352994,2.87E-12,,
,8.354994,3.52E-12,,
,8.356994,3.62E-12,,
,8.358994,3.62E-12,,
,8.360994,3.09E-12,,
,8.362994,2.44E-12,,
,8.364994,1.91E-12,,
,8.366994,2.01E-12,,
,8.368994,2.44E-12,,
,8.370994,2.98E-12,,
,8.372994,3.30E-12,,
,8.374994,3.30E-12,,
,8.376994,3.09E-12,,
,8.378994,2.66E-12,,
,8.380994,2.34E-12,,
,8.382994,2.01E-12,,
,8.384994,2.12E-12,,
,8.386994,2.55E-12,,
,8.388994,3.09E-12,,
,8.390994,3.09E-12,,
,8.392994,2.77E-12,,
,8.394994,2.23E-12,,
,8.396994,2.01E-12,,
,8.398994,1.80E-12,,
,8.400994,2.12E-12,,
,8.402994,2.77E-12,,
,8.404994,3.73E-12,,
,8.406994,4.16E-12,,
,8.408994,4.05E-12,,
,8.410994,3.30E-12,,
,8.412994,2.87E-12,,
,8.414994,2.66E-12,,
,8.416994,3.09E-12,,
,8.418994,3.52E-12,,
,8.420994,4.38E-12,,
,8.422994,4.91E-12,,
,8.424994,5.34E-12,,
,8.426994,5.02E-12,,
,8.428994,4.70E-12,,
,8.430994,4.05E-12,,
,8.432994,4.05E-12,,
,8.434994,4.38E-12,,
,8.436994,5.45E-12,,
,8.438994,6.09E-12,,
,8.440994,6.31E-12,,
,8.442994,5.99E-12,,
,8.444994,5.66E-12,,
,8.446994,5.45E-12,,
,8.448994,5.34E-12,,
,8.450994,5.56E-12,,
,8.452994,6.20E-12,,
,8.454994,6.85E-12,,
,8.456994,7.27E-12,,
,8.458994,7.38E-12,,
,8.460994,7.06E-12,,
,8.462994,6.63E-12,,
,8.464994,6.09E-12,,
,8.466994,6.42E-12,,
,8.468994,7.06E-12,,
,8.470994,7.81E-12,,
,8.472994,8.24E-12,,
,8.474994,8.03E-12,,
,8.476994,7.60E-12,,
,8.478994,7.06E-12,,
,8.480994,6.74E-12,,
,8.482994,6.85E-12,,
,8.484994,6.95E-12,,
,8.486994,7.38E-12,,
,8.488994,7.70E-12,,
,8.490994,7.92E-12,,
,8.492994,7.81E-12,,
,8.494994,7.27E-12,,
,8.496994,6.74E-12,,
,8.498994,6.74E-12,,
,8.500994,7.06E-12,,
,8.502994,7.70E-12,,
,8.504994,8.13E-12,,
,8.506994,8.46E-12,,
,8.508994,8.35E-12,,
,8.510994,7.81E-12,,
,8.512994,7.17E-12,,
,8.514994,6.74E-12,,
,8.516994,6.95E-12,,
,8.518994,7.38E-12,,
,8.520994,7.92E-12,,
,8.522994,8.13E-12,,
,8.524994,8.13E-12,,
,8.526994,7.81E-12,,
,8.528994,7.27E-12,,
,8.530994,6.74E-12,,
,8.532994,6.63E-12,,
,8.534994,6.95E-12,,
,8.536994,7.38E-12,,
,8.538994,7.92E-12,,
,8.540994,7.92E-12,,
,8.542994,7.60E-12,,
,8.544994,6.95E-12,,
,8.546994,6.31E-12,,
,8.548994,6.09E-12,,
,8.550994,6.09E-12,,
,8.552994,6.63E-12,,
,8.554994,7.17E-12,,
,8.556994,7.38E-12,,
,8.558994,6.95E-12,,
,8.560994,6.31E-12,,
,8.562994,5.34E-12,,
,8.564994,4.81E-12,,
,8.566994,4.48E-12,,
,8.568994,4.91E-12,,
,8.570994,5.45E-12,,
,8.572994,5.88E-12,,
,8.574994,5.66E-12,,
,8.576994,5.24E-12,,
,8.578994,4.48E-12,,
,8.580994,4.05E-12,,
,8.582994,3.73E-12,,
,8.584994,3.84E-12,,
,8.586994,4.05E-12,,
,8.588994,4.27E-12,,
,8.590994,4.27E-12,,
,8.592994,3.73E-12,,
,8.594994,2.98E-12,,
,8.596994,2.34E-12,,
,8.598994,2.12E-12,,
,8.600994,2.34E-12,,
,8.602994,2.66E-12,,
,8.604994,2.98E-12,,
,8.606994,2.98E-12,,
,8.608994,2.77E-12,,
,8.610994,2.12E-12,,
,8.612994,1.48E-12,,
,8.614994,8.34E-13,,
,8.616994,7.26E-13,,
,8.618994,1.05E-12,,
,8.620994,1.59E-12,,
,8.622994,2.01E-12,,
,8.624994,1.80E-12,,
,8.626994,1.48E-12,,
,8.628994,8.34E-13,,
,8.630994,4.04E-13,,
,8.632994,8.20E-14,,
,8.634994,1.89E-13,,
,8.636994,6.19E-13,,
,8.638994,9.41E-13,,
,8.640994,1.16E-12,,
,8.642994,8.34E-13,,
,8.644994,4.04E-13,,
,8.646994,-2.40E-13,,
,8.648994,-4.55E-13,,
,8.650994,-3.47E-13,,
,8.652994,8.20E-14,,
,8.654994,6.19E-13,,
,8.656994,1.05E-12,,
,8.658994,1.16E-12,,
,8.660994,7.26E-13,,
,8.662994,1.89E-13,,
,8.664994,-3.47E-13,,
,8.666994,-2.40E-13,,
,8.668994,1.89E-13,,
,8.670994,8.34E-13,,
,8.672994,1.16E-12,,
,8.674994,1.16E-12,,
,8.676994,7.26E-13,,
,8.678994,4.04E-13,,
,8.680994,-2.40E-13,,
,8.682994,-1.33E-13,,
,8.684994,2.97E-13,,
,8.686994,1.05E-12,,
,8.688994,1.69E-12,,
,8.690994,1.69E-12,,
,8.692994,1.48E-12,,
,8.694994,9.41E-13,,
,8.696994,5.11E-13,,
,8.698994,5.11E-13,,
,8.700994,6.19E-13,,
,8.702994,1.37E-12,,
,8.704994,1.80E-12,,
,8.706994,2.44E-12,,
,8.708994,2.01E-12,,
,8.710994,1.80E-12,,
,8.712994,1.16E-12,,
,8.714994,9.41E-13,,
,8.716994,9.41E-13,,
,8.718994,1.16E-12,,
,8.720994,1.69E-12,,
,8.722994,2.23E-12,,
,8.724994,2.34E-12,,
,8.726994,2.12E-12,,
,8.728994,1.59E-12,,
,8.730994,1.48E-12,,
,8.732994,1.69E-12,,
,8.734994,1.91E-12,,
,8.736994,2.44E-12,,
,8.738994,2.98E-12,,
,8.740994,3.30E-12,,
,8.742994,2.87E-12,,
,8.744994,2.23E-12,,
,8.746994,1.69E-12,,
,8.748994,1.80E-12,,
,8.750994,1.91E-12,,
,8.752994,2.23E-12,,
,8.754994,2.77E-12,,
,8.756994,3.09E-12,,
,8.758994,3.20E-12,,
,8.760994,2.44E-12,,
,8.762994,1.80E-12,,
,8.764994,1.59E-12,,
,8.766994,1.80E-12,,
,8.768994,2.34E-12,,
,8.770994,2.87E-12,,
,8.772994,3.30E-12,,
,8.774994,2.98E-12,,
,8.776994,2.23E-12,,
,8.778994,1.16E-12,,
,8.780994,8.34E-13,,
,8.782994,6.19E-13,,
,8.784994,1.05E-12,,
,8.786994,1.48E-12,,
,8.788994,1.91E-12,,
,8.790994,2.12E-12,,
,8.792994,1.91E-12,,
,8.794994,1.48E-12,,
,8.796994,8.34E-13,,
,8.798994,4.04E-13,,
,8.800994,2.97E-13,,
,8.802994,6.19E-13,,
,8.804994,1.16E-12,,
,8.806994,1.26E-12,,
,8.808994,1.16E-12,,
,8.810994,4.04E-13,,
,8.812994,-1.33E-13,,
,8.814994,-7.77E-13,,
,8.816994,-7.77E-13,,
,8.818994,-3.47E-13,,
,8.820994,2.97E-13,,
,8.822994,8.34E-13,,
,8.824994,7.26E-13,,
,8.826994,4.04E-13,,
,8.828994,-2.40E-13,,
,8.830994,-7.77E-13,,
,8.832994,-1.10E-12,,
,8.834994,-1.10E-12,,
,8.836994,-4.55E-13,,
,8.838994,1.89E-13,,
,8.840994,5.11E-13,,
,8.842994,1.89E-13,,
,8.844994,-4.55E-13,,
,8.846994,-8.84E-13,,
,8.848994,-1.10E-12,,
,8.850994,-9.92E-13,,
,8.852994,-5.62E-13,,
,8.854994,-1.33E-13,,
,8.856994,8.20E-14,,
,8.858994,-1.33E-13,,
,8.860994,-4.55E-13,,
,8.862994,-8.84E-13,,
,8.864994,-1.10E-12,,
,8.866994,-9.92E-13,,
,8.868994,-5.62E-13,,
,8.870994,-1.33E-13,,
,8.872994,2.97E-13,,
,8.874994,5.11E-13,,
,8.876994,2.97E-13,,
,8.878994,-2.40E-13,,
,8.880994,-6.69E-13,,
,8.882994,-7.77E-13,,
,8.884994,-3.47E-13,,
,8.886994,4.04E-13,,
,8.888994,1.05E-12,,
,8.890994,1.37E-12,,
,8.892994,1.05E-12,,
,8.894994,8.34E-13,,
,8.896994,4.04E-13,,
,8.898994,4.04E-13,,
,8.900994,7.26E-13,,
,8.902994,1.16E-12,,
,8.904994,1.80E-12,,
,8.906994,2.23E-12,,
,8.908994,2.55E-12,,
,8.910994,2.34E-12,,
,8.912994,1.91E-12,,
,8.914994,1.69E-12,,
,8.916994,1.91E-12,,
,8.918994,2.55E-12,,
,8.920994,3.30E-12,,
,8.922994,3.73E-12,,
,8.924994,3.73E-12,,
,8.926994,3.30E-12,,
,8.928994,2.98E-12,,
,8.930994,2.77E-12,,
,8.932994,3.09E-12,,
,8.934994,3.41E-12,,
,8.936994,4.16E-12,,
,8.938994,4.70E-12,,
,8.940994,5.45E-12,,
,8.942994,5.34E-12,,
,8.944994,4.91E-12,,
,8.946994,4.27E-12,,
,8.948994,4.16E-12,,
,8.950994,4.70E-12,,
,8.952994,5.56E-12,,
,8.954994,6.20E-12,,
,8.956994,6.42E-12,,
,8.958994,6.09E-12,,
,8.960994,5.66E-12,,
,8.962994,5.13E-12,,
,8.964994,4.81E-12,,
,8.966994,4.91E-12,,
,8.968994,5.34E-12,,
,8.970994,5.99E-12,,
,8.972994,6.63E-12,,
,8.974994,6.85E-12,,
,8.976994,6.52E-12,,
,8.978994,5.77E-12,,
,8.980994,5.13E-12,,
,8.982994,5.02E-12,,
,8.984994,5.24E-12,,
,8.986994,5.66E-12,,
,8.988994,5.88E-12,,
,8.990994,5.99E-12,,
,8.992994,5.88E-12,,
,8.994994,5.45E-12,,
,8.996994,4.91E-12,,
,8.998994,4.48E-12,,
,9.000994,4.70E-12,,
,9.002994,5.13E-12,,
,9.004994,5.77E-12,,
,9.006994,5.88E-12,,
,9.008994,5.45E-12,,
,9.010994,4.59E-12,,
,9.012994,3.84E-12,,
,9.014994,3.62E-12,,
,9.016994,3.62E-12,,
,9.018994,3.84E-12,,
,9.020994,4.16E-12,,
,9.022994,4.59E-12,,
,9.024994,4.70E-12,,
,9.026994,4.16E-12,,
,9.028994,3.30E-12,,
,9.030994,2.55E-12,,
,9.032994,2.34E-12,,
,9.034994,2.34E-12,,
,9.036994,2.66E-12,,
,9.038994,3.09E-12,,
,9.040994,3.20E-12,,
,9.042994,2.66E-12,,
,9.044994,1.80E-12,,
,9.046994,1.05E-12,,
,9.048994,6.19E-13,,
,9.050994,7.26E-13,,
,9.052994,1.26E-12,,
,9.054994,1.91E-12,,
,9.056994,2.01E-12,,
,9.058994,1.48E-12,,
,9.060994,6.19E-13,,
,9.062994,-1.33E-13,,
,9.064994,-7.77E-13,,
,9.066994,-9.92E-13,,
,9.068994,-8.84E-13,,
,9.070994,-3.47E-13,,
,9.072994,8.20E-14,,
,9.074994,-1.33E-13,,
,9.076994,-5.62E-13,,
,9.078994,-1.31E-12,,
,9.080994,-1.74E-12,,
,9.082994,-2.07E-12,,
,9.084994,-1.85E-12,,
,9.086994,-1.53E-12,,
,9.088994,-1.21E-12,,
,9.090994,-1.10E-12,,
,9.092994,-1.42E-12,,
,9.094994,-1.96E-12,,
,9.096994,-2.71E-12,,
,9.098994,-3.14E-12,,
,9.100994,-3.25E-12,,
,9.102994,-2.92E-12,,
,9.104994,-2.39E-12,,
,9.106994,-2.07E-12,,
,9.108994,-2.07E-12,,
,9.110994,-2.71E-12,,
,9.112994,-3.25E-12,,
,9.114994,-3.78E-12,,
,9.116994,-3.57E-12,,
,9.118994,-3.25E-12,,
,9.120994,-2.71E-12,,
,9.122994,-2.82E-12,,
,9.124994,-2.82E-12,,
,9.126994,-3.25E-12,,
,9.128994,-3.78E-12,,
,9.130994,-4.43E-12,,
,9.132994,-4.64E-12,,
,9.134994,-4.10E-12,,
,9.136994,-3.57E-12,,
,9.138994,-2.82E-12,,
,9.140994,-2.60E-12,,
,9.142994,-2.71E-12,,
,9.144994,-3.35E-12,,
,9.146994,-3.89E-12,,
,9.148994,-4.10E-12,,
,9.150994,-4.00E-12,,
,9.152994,-3.25E-12,,
,9.154994,-2.60E-12,,
,9.156994,-2.17E-12,,
,9.158994,-2.49E-12,,
,9.160994,-2.82E-12,,
,9.162994,-3.35E-12,,
,9.164994,-3.46E-12,,
,9.166994,-3.46E-12,,
,9.168994,-3.03E-12,,
,9.170994,-2.39E-12,,
,9.172994,-1.96E-12,,
,9.174994,-1.53E-12,,
,9.176994,-1.85E-12,,
,9.178994,-2.28E-12,,
,9.180994,-2.60E-12,,
,9.182994,-2.49E-12,,
,9.184994,-1.96E-12,,
,9.186994,-1.53E-12,,
,9.188994,-8.84E-13,,
,9.190994,-6.69E-13,,
,9.192994,-6.69E-13,,
,9.194994,-1.53E-12,,
,9.196994,-1.96E-12,,
,9.198994,-1.96E-12,,
,9.200994,-1.21E-12,,
,9.202994,-4.55E-13,,
,9.204994,1.89E-13,,
,9.206994,7.26E-13,,
,9.208994,9.41E-13,,
,9.210994,5.11E-13,,
,9.212994,-2.53E-14,,
,9.214994,-4.55E-13,,
,9.216994,-3.47E-13,,
,9.218994,8.20E-14,,
,9.220994,9.41E-13,,
,9.222994,1.80E-12,,
,9.224994,2.23E-12,,
,9.226994,1.91E-12,,
,9.228994,1.26E-12,,
,9.230994,8.34E-13,,
,9.232994,1.05E-12,,
,9.234994,1.59E-12,,
,9.236994,2.23E-12,,
,9.238994,2.77E-12,,
,9.240994,3.20E-12,,
,9.242994,3.09E-12,,
,9.244994,2.66E-12,,
,9.246994,2.12E-12,,
,9.248994,2.12E-12,,
,9.250994,2.55E-12,,
,9.252994,3.20E-12,,
,9.254994,4.05E-12,,
,9.256994,4.27E-12,,
,9.258994,4.16E-12,,
,9.260994,3.41E-12,,
,9.262994,3.09E-12,,
,9.264994,2.98E-12,,
,9.266994,3.20E-12,,
,9.268994,3.52E-12,,
,9.270994,4.16E-12,,
,9.272994,4.70E-12,,
,9.274994,4.70E-12,,
,9.276994,4.16E-12,,
,9.278994,3.52E-12,,
,9.280994,3.20E-12,,
,9.282994,3.20E-12,,
,9.284994,3.62E-12,,
,9.286994,4.27E-12,,
,9.288994,4.81E-12,,
,9.290994,4.91E-12,,
,9.292994,4.48E-12,,
,9.294994,4.05E-12,,
,9.296994,3.62E-12,,
,9.298994,3.41E-12,,
,9.300994,3.41E-12,,
,9.302994,3.84E-12,,
,9.304994,4.48E-12,,
,9.306994,4.81E-12,,
,9.308994,4.59E-12,,
,9.310994,4.16E-12,,
,9.312994,3.62E-12,,
,9.314994,3.41E-12,,
,9.316994,3.41E-12,,
,9.318994,3.62E-12,,
,9.320994,4.05E-12,,
,9.322994,4.38E-12,,
,9.324994,4.48E-12,,
,9.326994,4.16E-12,,
,9.328994,3.41E-12,,
,9.330994,3.09E-12,,
,9.332994,2.66E-12,,
,9.334994,2.77E-12,,
,9.336994,2.98E-12,,
,9.338994,3.52E-12,,
,9.340994,4.05E-12,,
,9.342994,3.73E-12,,
,9.344994,3.09E-12,,
,9.346994,2.34E-12,,
,9.348994,2.01E-12,,
,9.350994,2.12E-12,,
,9.352994,2.55E-12,,
,9.354994,3.20E-12,,
,9.356994,3.62E-12,,
,9.358994,3.62E-12,,
,9.360994,3.20E-12,,
,9.362994,2.44E-12,,
,9.364994,1.91E-12,,
,9.366994,2.01E-12,,
,9.368994,2.55E-12,,
,9.370994,2.98E-12,,
,9.372994,3.30E-12,,
,9.374994,3.52E-12,,
,9.376994,3.41E-12,,
,9.378994,2.77E-12,,
,9.380994,2.23E-12,,
,9.382994,1.91E-12,,
,9.384994,2.23E-12,,
,9.386994,2.77E-12,,
,9.388994,3.30E-12,,
,9.390994,3.41E-12,,
,9.392994,2.98E-12,,
,9.394994,2.34E-12,,
,9.396994,1.91E-12,,
,9.398994,1.80E-12,,
,9.400994,2.01E-12,,
,9.402994,2.44E-12,,
,9.404994,2.98E-12,,
,9.406994,3.41E-12,,
,9.408994,3.30E-12,,
,9.410994,2.87E-12,,
,9.412994,2.34E-12,,
,9.414994,2.12E-12,,
,9.416994,2.44E-12,,
,9.418994,2.87E-12,,
,9.420994,3.52E-12,,
,9.422994,3.84E-12,,
,9.424994,3.95E-12,,
,9.426994,3.62E-12,,
,9.428994,3.09E-12,,
,9.430994,2.77E-12,,
,9.432994,2.66E-12,,
,9.434994,2.66E-12,,
,9.436994,3.20E-12,,
,9.438994,3.73E-12,,
,9.440994,4.05E-12,,
,9.442994,3.62E-12,,
,9.444994,2.98E-12,,
,9.446994,2.55E-12,,
,9.448994,2.44E-12,,
,9.450994,2.66E-12,,
,9.452994,3.20E-12,,
,9.454994,3.62E-12,,
,9.456994,3.84E-12,,
,9.458994,3.41E-12,,
,9.460994,2.87E-12,,
,9.462994,2.12E-12,,
,9.464994,1.80E-12,,
,9.466994,1.80E-12,,
,9.468994,2.23E-12,,
,9.470994,2.66E-12,,
,9.472994,3.20E-12,,
,9.474994,3.20E-12,,
,9.476994,2.98E-12,,
,9.478994,2.12E-12,,
,9.480994,1.48E-12,,
,9.482994,1.26E-12,,
,9.484994,1.48E-12,,
,9.486994,2.23E-12,,
,9.488994,2.77E-12,,
,9.490994,3.20E-12,,
,9.492994,2.87E-12,,
,9.494994,2.34E-12,,
,9.496994,1.59E-12,,
,9.498994,1.37E-12,,
,9.500994,1.37E-12,,
,9.502994,1.91E-12,,
,9.504994,2.44E-12,,
,9.506994,2.77E-12,,
,9.508994,2.77E-12,,
,9.510994,2.12E-12,,
,9.512994,1.69E-12,,
,9.514994,1.16E-12,,
,9.516994,1.26E-12,,
,9.518994,1.69E-12,,
,9.520994,2.34E-12,,
,9.522994,2.87E-12,,
,9.524994,2.87E-12,,
,9.526994,2.66E-12,,
,9.528994,2.12E-12,,
,9.530994,1.59E-12,,
,9.532994,1.26E-12,,
,9.534994,1.59E-12,,
,9.536994,2.12E-12,,
,9.538994,2.77E-12,,
,9.540994,2.87E-12,,
,9.542994,2.77E-12,,
,9.544994,2.23E-12,,
,9.546994,1.80E-12,,
,9.548994,1.48E-12,,
,9.550994,1.80E-12,,
,9.552994,2.34E-12,,
,9.554994,2.98E-12,,
,9.556994,3.20E-12,,
,9.558994,3.09E-12,,
,9.560994,2.77E-12,,
,9.562994,2.34E-12,,
,9.564994,1.91E-12,,
,9.566994,1.91E-12,,
,9.568994,2.34E-12,,
,9.570994,3.09E-12,,
,9.572994,3.41E-12,,
,9.574994,3.62E-12,,
,9.576994,3.30E-12,,
,9.578994,2.55E-12,,
,9.580994,1.80E-12,,
,9.582994,1.59E-12,,
,9.584994,2.12E-12,,
,9.586994,2.77E-12,,
,9.588994,3.30E-12,,
,9.590994,3.62E-12,,
,9.592994,3.30E-12,,
,9.594994,2.55E-12,,
,9.596994,1.91E-12,,
,9.598994,1.69E-12,,
,9.600994,1.91E-12,,
,9.602994,2.23E-12,,
,9.604994,2.66E-12,,
,9.606994,3.09E-12,,
,9.608994,2.98E-12,,
,9.610994,2.44E-12,,
,9.612994,1.59E-12,,
,9.614994,1.26E-12,,
,9.616994,1.59E-12,,
,9.618994,2.01E-12,,
,9.620994,2.55E-12,,
,9.622994,2.87E-12,,
,9.624994,3.09E-12,,
,9.626994,2.66E-12,,
,9.628994,2.01E-12,,
,9.630994,1.48E-12,,
,9.632994,1.26E-12,,
,9.634994,1.59E-12,,
,9.636994,2.12E-12,,
,9.638994,2.66E-12,,
,9.640994,2.87E-12,,
,9.642994,2.66E-12,,
,9.644994,2.34E-12,,
,9.646994,1.69E-12,,
,9.648994,1.48E-12,,
,9.650994,1.37E-12,,
,9.652994,1.80E-12,,
,9.654994,2.34E-12,,
,9.656994,2.77E-12,,
,9.658994,2.77E-12,,
,9.660994,2.23E-12,,
,9.662994,1.69E-12,,
,9.664994,9.41E-13,,
,9.666994,9.41E-13,,
,9.668994,9.41E-13,,
,9.670994,1.59E-12,,
,9.672994,2.12E-12,,
,9.674994,2.34E-12,,
,9.676994,1.91E-12,,
,9.678994,9.41E-13,,
,9.680994,4.04E-13,,
,9.682994,1.89E-13,,
,9.684994,7.26E-13,,
,9.686994,1.26E-12,,
,9.688994,1.69E-12,,
,9.690994,1.37E-12,,
,9.692994,1.05E-12,,
,9.694994,5.11E-13,,
,9.696994,8.20E-14,,
,9.698994,-2.40E-13,,
,9.700994,-2.40E-13,,
,9.702994,1.89E-13,,
,9.704994,6.19E-13,,
,9.706994,9.41E-13,,
,9.708994,6.19E-13,,
,9.710994,1.89E-13,,
,9.712994,-4.55E-13,,
,9.714994,-8.84E-13,,
,9.716994,-9.92E-13,,
,9.718994,-7.77E-13,,
,9.720994,-1.33E-13,,
,9.722994,8.20E-14,,
,9.724994,1.89E-13,,
,9.726994,-4.55E-13,,
,9.728994,-9.92E-13,,
,9.730994,-1.64E-12,,
,9.732994,-1.74E-12,,
,9.734994,-1.42E-12,,
,9.736994,-6.69E-13,,
,9.738994,8.20E-14,,
,9.740994,1.89E-13,,
,9.742994,-2.53E-14,,
,9.744994,-5.62E-13,,
,9.746994,-7.77E-13,,
,9.748994,-1.10E-12,,
,9.750994,-8.84E-13,,
,9.752994,-4.55E-13,,
,9.754994,4.04E-13,,
,9.756994,9.41E-13,,
,9.758994,9.41E-13,,
,9.760994,5.11E-13,,
,9.762994,-2.40E-13,,
,9.764994,-4.55E-13,,
,9.766994,-1.33E-13,,
,9.768994,8.34E-13,,
,9.770994,1.48E-12,,
,9.772994,2.01E-12,,
,9.774994,2.01E-12,,
,9.776994,1.69E-12,,
,9.778994,1.16E-12,,
,9.780994,6.19E-13,,
,9.782994,8.34E-13,,
,9.784994,1.16E-12,,
,9.786994,1.91E-12,,
,9.788994,2.55E-12,,
,9.790994,2.87E-12,,
,9.792994,2.77E-12,,
,9.794994,2.23E-12,,
,9.796994,1.91E-12,,
,9.798994,1.91E-12,,
,9.800994,2.44E-12,,
,9.802994,2.98E-12,,
,9.804994,3.84E-12,,
,9.806994,4.16E-12,,
,9.808994,4.38E-12,,
,9.810994,3.95E-12,,
,9.812994,3.41E-12,,
,9.814994,3.09E-12,,
,9.816994,2.98E-12,,
,9.818994,3.62E-12,,
,9.820994,4.27E-12,,
,9.822994,4.91E-12,,
,9.824994,4.70E-12,,
,9.826994,4.48E-12,,
,9.828994,4.05E-12,,
,9.830994,3.73E-12,,
,9.832994,3.30E-12,,
,9.834994,3.52E-12,,
,9.836994,4.05E-12,,
,9.838994,4.91E-12,,
,9.840994,5.02E-12,,
,9.842994,4.81E-12,,
,9.844994,4.27E-12,,
,9.846994,3.95E-12,,
,9.848994,3.73E-12,,
,9.850994,3.62E-12,,
,9.852994,4.05E-12,,
,9.854994,4.48E-12,,
,9.856994,4.91E-12,,
,9.858994,4.59E-12,,
,9.860994,4.27E-12,,
,9.862994,3.73E-12,,
,9.864994,3.41E-12,,
,9.866994,3.41E-12,,
,9.868994,3.52E-12,,
,9.870994,4.16E-12,,
,9.872994,4.59E-12,,
,9.874994,4.70E-12,,
,9.876994,4.16E-12,,
,9.878994,3.52E-12,,
,9.880994,2.98E-12,,
,9.882994,2.87E-12,,
,9.884994,3.09E-12,,
,9.886994,3.73E-12,,
,9.888994,4.27E-12,,
,9.890994,4.48E-12,,
,9.892994,4.27E-12,,
,9.894994,3.41E-12,,
,9.896994,2.77E-12,,
,9.898994,2.66E-12,,
,9.900994,3.09E-12,,
,9.902994,3.52E-12,,
,9.904994,3.62E-12,,
,9.906994,3.84E-12,,
,9.908994,3.62E-12,,
,9.910994,3.30E-12,,
,9.912994,2.66E-12,,
,9.914994,2.44E-12,,
,9.916994,2.34E-12,,
,9.918994,2.66E-12,,
,9.920994,3.09E-12,,
,9.922994,3.52E-12,,
,9.924994,3.52E-12,,
,9.926994,3.20E-12,,
,9.928994,2.44E-12,,
,9.930994,1.91E-12,,
,9.932994,1.69E-12,,
,9.934994,2.01E-12,,
,9.936994,2.55E-12,,
,9.938994,2.77E-12,,
,9.940994,2.98E-12,,
,9.942994,2.66E-12,,
,9.944994,2.12E-12,,
,9.946994,1.26E-12,,
,9.948994,9.41E-13,,
,9.950994,1.05E-12,,
,9.952994,1.48E-12,,
,9.954994,2.01E-12,,
,9.956994,2.34E-12,,
,9.958994,2.34E-12,,
,9.960994,1.59E-12,,
,9.962994,8.34E-13,,
,9.964994,2.97E-13,,
,9.966994,2.97E-13,,
,9.968994,7.26E-13,,
,9.970994,1.37E-12,,
,9.972994,2.12E-12,,
,9.974994,2.12E-12,,
,9.976994,1.80E-12,,
,9.978994,1.05E-12,,
,9.980994,4.04E-13,,
,9.982994,8.20E-14,,
,9.984994,2.97E-13,,
,9.986994,9.41E-13,,
,9.988994,1.48E-12,,
,9.990994,1.59E-12,,
,9.992994,1.16E-12,,
,9.994994,7.26E-13,,
,9.996994,1.89E-13,,
,9.998994,1.89E-13,,
,10.000994,1.89E-13,,
,10.002994,7.26E-13,,
,10.004994,1.16E-12,,
,10.006994,1.69E-12,,
,10.008994,1.59E-12,,
,10.010994,1.26E-12,,
,10.012994,2.97E-13,,
,10.014994,-1.33E-13,,
,10.016994,-2.40E-13,,
,10.018994,2.97E-13,,
,10.020994,7.26E-13,,
,10.022994,1.05E-12,,
,10.024994,1.16E-12,,
,10.026994,9.41E-13,,
,10.028994,5.11E-13,,
,10.030994,-2.40E-13,,
,10.032994,-2.40E-13,,
,10.034994,1.89E-13,,
,10.036994,1.05E-12,,
,10.038994,1.48E-12,,
,10.040994,1.69E-12,,
,10.042994,1.48E-12,,
,10.044994,8.34E-13,,
,10.046994,1.89E-13,,
,10.048994,-2.53E-14,,
,10.050994,2.97E-13,,
,10.052994,8.34E-13,,
,10.054994,1.37E-12,,
,10.056994,1.69E-12,,
,10.058994,1.69E-12,,
,10.060994,1.26E-12,,
,10.062994,8.34E-13,,
,10.064994,2.97E-13,,
,10.066994,4.04E-13,,
,10.068994,7.26E-13,,
,10.070994,1.69E-12,,
,10.072994,2.23E-12,,
,10.074994,2.23E-12,,
,10.076994,1.80E-12,,
,10.078994,1.26E-12,,
,10.080994,9.41E-13,,
,10.082994,9.41E-13,,
,10.084994,1.26E-12,,
,10.086994,1.91E-12,,
,10.088994,2.44E-12,,
,10.090994,2.66E-12,,
,10.092994,2.55E-12,,
,10.094994,2.01E-12,,
,10.096994,1.48E-12,,
,10.098994,1.05E-12,,
,10.100994,9.41E-13,,
,10.102994,1.37E-12,,
,10.104994,2.12E-12,,
,10.106994,2.66E-12,,
,10.108994,2.44E-12,,
,10.110994,1.91E-12,,
,10.112994,1.26E-12,,
,10.114994,1.05E-12,,
,10.116994,9.41E-13,,
,10.118994,1.16E-12,,
,10.120994,1.69E-12,,
,10.122994,2.23E-12,,
,10.124994,2.55E-12,,
,10.126994,2.12E-12,,
,10.128994,1.48E-12,,
,10.130994,8.34E-13,,
,10.132994,4.04E-13,,
,10.134994,7.26E-13,,
,10.136994,1.26E-12,,
,10.138994,2.01E-12,,
,10.140994,1.91E-12,,
,10.142994,1.48E-12,,
,10.144994,6.19E-13,,
,10.146994,8.20E-14,,
,10.148994,-3.47E-13,,
,10.150994,-2.53E-14,,
,10.152994,2.97E-13,,
,10.154994,8.34E-13,,
,10.156994,1.16E-12,,
,10.158994,1.26E-12,,
,10.160994,8.34E-13,,
,10.162994,8.20E-14,,
,10.164994,-3.47E-13,,
,10.166994,-2.40E-13,,
,10.168994,2.97E-13,,
,10.170994,6.19E-13,,
,10.172994,8.34E-13,,
,10.174994,9.41E-13,,
,10.176994,4.04E-13,,
,10.178994,-2.53E-14,,
,10.180994,-5.62E-13,,
,10.182994,-3.47E-13,,
,10.184994,-2.40E-13,,
,10.186994,-2.53E-14,,
,10.188994,4.04E-13,,
,10.190994,7.26E-13,,
,10.192994,8.34E-13,,
,10.194994,2.97E-13,,
,10.196994,-1.33E-13,,
,10.198994,-5.62E-13,,
,10.200994,-5.62E-13,,
,10.202994,-2.40E-13,,
,10.204994,5.11E-13,,
,10.206994,9.41E-13,,
,10.208994,8.34E-13,,
,10.210994,1.89E-13,,
,10.212994,-3.47E-13,,
,10.214994,-5.62E-13,,
,10.216994,-4.55E-13,,
,10.218994,-2.53E-14,,
,10.220994,6.19E-13,,
,10.222994,1.05E-12,,
,10.224994,1.16E-12,,
,10.226994,6.19E-13,,
,10.228994,8.20E-14,,
,10.230994,-2.40E-13,,
,10.232994,-2.40E-13,,
,10.234994,-2.53E-14,,
,10.236994,5.11E-13,,
,10.238994,1.05E-12,,
,10.240994,1.37E-12,,
,10.242994,9.41E-13,,
,10.244994,4.04E-13,,
,10.246994,-2.40E-13,,
,10.248994,-3.47E-13,,
,10.250994,-3.47E-13,,
,10.252994,1.89E-13,,
,10.254994,7.26E-13,,
,10.256994,1.05E-12,,
,10.258994,8.34E-13,,
,10.260994,6.19E-13,,
,10.262994,1.89E-13,,
,10.264994,-2.53E-14,,
,10.266994,-3.47E-13,,
,10.268994,8.20E-14,,
,10.270994,6.19E-13,,
,10.272994,1.16E-12,,
,10.274994,1.05E-12,,
,10.276994,7.26E-13,,
,10.278994,-2.53E-14,,
,10.280994,-3.47E-13,,
,10.282994,-4.55E-13,,
,10.284994,-2.53E-14,,
,10.286994,2.97E-13,,
,10.288994,6.19E-13,,
,10.290994,7.26E-13,,
,10.292994,5.11E-13,,
,10.294994,-2.53E-14,,
,10.296994,-6.69E-13,,
,10.298994,-9.92E-13,,
,10.300994,-1.10E-12,,
,10.302994,-6.69E-13,,
,10.304994,-3.47E-13,,
,10.306994,8.20E-14,,
,10.308994,-2.40E-13,,
,10.310994,-5.62E-13,,
,10.312994,-1.21E-12,,
,10.314994,-1.74E-12,,
,10.316994,-1.85E-12,,
,10.318994,-1.42E-12,,
,10.320994,-7.77E-13,,
,10.322994,-2.40E-13,,
,10.324994,-3.47E-13,,
,10.326994,-6.69E-13,,
,10.328994,-1.64E-12,,
,10.330994,-2.07E-12,,
,10.332994,-2.17E-12,,
,10.334994,-1.74E-12,,
,10.336994,-1.21E-12,,
,10.338994,-7.77E-13,,
,10.340994,-3.47E-13,,
,10.342994,-6.69E-13,,
,10.344994,-1.31E-12,,
,10.346994,-2.17E-12,,
,10.348994,-2.49E-12,,
,10.350994,-2.49E-12,,
,10.352994,-1.96E-12,,
,10.354994,-1.53E-12,,
,10.356994,-1.10E-12,,
,10.358994,-1.31E-12,,
,10.360994,-1.74E-12,,
,10.362994,-2.17E-12,,
,10.364994,-2.28E-12,,
,10.366994,-2.28E-12,,
,10.368994,-2.07E-12,,
,10.370994,-1.64E-12,,
,10.372994,-8.84E-13,,
,10.374994,-5.62E-13,,
,10.376994,-7.77E-13,,
,10.378994,-1.53E-12,,
,10.380994,-1.96E-12,,
,10.382994,-2.17E-12,,
,10.384994,-1.74E-12,,
,10.386994,-1.31E-12,,
,10.388994,-7.77E-13,,
,10.390994,-5.62E-13,,
,10.392994,-6.69E-13,,
,10.394994,-9.92E-13,,
,10.396994,-1.42E-12,,
,10.398994,-1.42E-12,,
,10.400994,-9.92E-13,,
,10.402994,-3.47E-13,,
,10.404994,2.97E-13,,
,10.406994,6.19E-13,,
,10.408994,8.34E-13,,
,10.410994,2.97E-13,,
,10.412994,-2.53E-14,,
,10.414994,-3.47E-13,,
,10.416994,-2.53E-14,,
,10.418994,5.11E-13,,
,10.420994,1.59E-12,,
,10.422994,2.23E-12,,
,10.424994,2.44E-12,,
,10.426994,1.59E-12,,
,10.428994,1.05E-12,,
,10.430994,6.19E-13,,
,10.432994,9.41E-13,,
,10.434994,1.48E-12,,
,10.436994,2.01E-12,,
,10.438994,2.44E-12,,
,10.440994,2.55E-12,,
,10.442994,2.12E-12,,
,10.444994,1.59E-12,,
,10.446994,1.16E-12,,
,10.448994,1.05E-12,,
,10.450994,1.37E-12,,
,10.452994,1.91E-12,,
,10.454994,2.77E-12,,
,10.456994,3.09E-12,,
,10.458994,3.20E-12,,
,10.460994,2.55E-12,,
,10.462994,2.01E-12,,
,10.464994,1.26E-12,,
,10.466994,1.48E-12,,
,10.468994,1.80E-12,,
,10.470994,2.44E-12,,
,10.472994,2.77E-12,,
,10.474994,2.87E-12,,
,10.476994,2.66E-12,,
,10.478994,2.01E-12,,
,10.480994,1.48E-12,,
,10.482994,1.37E-12,,
,10.484994,1.80E-12,,
,10.486994,2.55E-12,,
,10.488994,3.09E-12,,
,10.490994,3.09E-12,,
,10.492994,2.87E-12,,
,10.494994,2.34E-12,,
,10.496994,2.01E-12,,
,10.498994,1.59E-12,,
,10.500994,1.48E-12,,
,10.502994,2.01E-12,,
,10.504994,2.66E-12,,
,10.506994,3.30E-12,,
,10.508994,3.20E-12,,
,10.510994,2.77E-12,,
,10.512994,2.23E-12,,
,10.514994,2.01E-12,,
,10.516994,2.12E-12,,
,10.518994,2.66E-12,,
,10.520994,3.09E-12,,
,10.522994,3.62E-12,,
,10.524994,3.62E-12,,
,10.526994,3.30E-12,,
,10.528994,2.77E-12,,
,10.530994,2.44E-12,,
,10.532994,2.34E-12,,
,10.534994,2.55E-12,,
,10.536994,2.98E-12,,
,10.538994,3.73E-12,,
,10.540994,4.38E-12,,
,10.542994,4.48E-12,,
,10.544994,3.95E-12,,
,10.546994,3.09E-12,,
,10.548994,2.66E-12,,
,10.550994,2.98E-12,,
,10.552994,3.73E-12,,
,10.554994,4.70E-12,,
,10.556994,5.13E-12,,
,10.558994,5.02E-12,,
,10.560994,4.48E-12,,
,10.562994,3.95E-12,,
,10.564994,3.73E-12,,
,10.566994,3.73E-12,,
,10.568994,4.27E-12,,
,10.570994,5.13E-12,,
,10.572994,5.88E-12,,
,10.574994,5.99E-12,,
,10.576994,5.34E-12,,
,10.578994,4.59E-12,,
,10.580994,4.05E-12,,
,10.582994,4.05E-12,,
,10.584994,4.38E-12,,
,10.586994,4.91E-12,,
,10.588994,5.56E-12,,
,10.590994,5.66E-12,,
,10.592994,5.66E-12,,
,10.594994,5.02E-12,,
,10.596994,4.59E-12,,
,10.598994,4.16E-12,,
,10.600994,4.38E-12,,
,10.602994,4.81E-12,,
,10.604994,5.56E-12,,
,10.606994,5.99E-12,,
,10.608994,5.99E-12,,
,10.610994,5.34E-12,,
,10.612994,4.81E-12,,
,10.614994,4.38E-12,,
,10.616994,4.27E-12,,
,10.618994,4.48E-12,,
,10.620994,5.13E-12,,
,10.622994,5.99E-12,,
,10.624994,5.88E-12,,
,10.626994,5.56E-12,,
,10.628994,4.70E-12,,
,10.630994,4.27E-12,,
,10.632994,4.05E-12,,
,10.634994,4.38E-12,,
,10.636994,5.13E-12,,
,10.638994,5.56E-12,,
,10.640994,5.66E-12,,
,10.642994,5.34E-12,,
,10.644994,4.81E-12,,
,10.646994,4.48E-12,,
,10.648994,4.27E-12,,
,10.650994,4.48E-12,,
,10.652994,4.81E-12,,
,10.654994,5.24E-12,,
,10.656994,5.45E-12,,
,10.658994,5.45E-12,,
,10.660994,5.13E-12,,
,10.662994,4.70E-12,,
,10.664994,4.16E-12,,
,10.666994,4.16E-12,,
,10.668994,4.59E-12,,
,10.670994,5.24E-12,,
,10.672994,5.88E-12,,
,10.674994,5.99E-12,,
,10.676994,5.45E-12,,
,10.678994,4.70E-12,,
,10.680994,4.16E-12,,
,10.682994,4.27E-12,,
,10.684994,4.38E-12,,
,10.686994,4.91E-12,,
,10.688994,5.34E-12,,
,10.690994,5.66E-12,,
,10.692994,5.24E-12,,
,10.694994,4.70E-12,,
,10.696994,4.05E-12,,
,10.698994,3.62E-12,,
,10.700994,3.84E-12,,
,10.702994,4.27E-12,,
,10.704994,5.13E-12,,
,10.706994,5.45E-12,,
,10.708994,5.45E-12,,
,10.710994,4.91E-12,,
,10.712994,4.38E-12,,
,10.714994,3.95E-12,,
,10.716994,3.73E-12,,
,10.718994,3.84E-12,,
,10.720994,4.27E-12,,
,10.722994,4.81E-12,,
,10.724994,5.02E-12,,
,10.726994,4.38E-12,,
,10.728994,3.73E-12,,
,10.730994,2.87E-12,,
,10.732994,2.87E-12,,
,10.734994,2.77E-12,,
,10.736994,3.20E-12,,
,10.738994,3.41E-12,,
,10.740994,3.62E-12,,
,10.742994,3.41E-12,,
,10.744994,2.87E-12,,
,10.746994,2.23E-12,,
,10.748994,1.80E-12,,
,10.750994,1.80E-12,,
,10.752994,2.34E-12,,
,10.754994,2.98E-12,,
,10.756994,3.30E-12,,
,10.758994,2.98E-12,,
,10.760994,2.12E-12,,
,10.762994,1.26E-12,,
,10.764994,8.34E-13,,
,10.766994,8.34E-13,,
,10.768994,1.37E-12,,
,10.770994,1.91E-12,,
,10.772994,2.23E-12,,
,10.774994,2.12E-12,,
,10.776994,1.69E-12,,
,10.778994,1.16E-12,,
,10.780994,4.04E-13,,
,10.782994,2.97E-13,,
,10.784994,4.04E-13,,
,10.786994,1.16E-12,,
,10.788994,1.37E-12,,
,10.790994,1.59E-12,,
,10.792994,1.16E-12,,
,10.794994,6.19E-13,,
,10.796994,8.20E-14,,
,10.798994,-2.40E-13,,
,10.800994,-2.53E-14,,
,10.802994,4.04E-13,,
,10.804994,9.41E-13,,
,10.806994,1.26E-12,,
,10.808994,1.26E-12,,
,10.810994,1.05E-12,,
,10.812994,4.04E-13,,
,10.814994,-1.33E-13,,
,10.816994,-4.55E-13,,
,10.818994,-1.33E-13,,
,10.820994,2.97E-13,,
,10.822994,8.34E-13,,
,10.824994,1.05E-12,,
,10.826994,5.11E-13,,
,10.828994,-2.53E-14,,
,10.830994,-6.69E-13,,
,10.832994,-4.55E-13,,
,10.834994,-2.40E-13,,
,10.836994,4.04E-13,,
,10.838994,6.19E-13,,
,10.840994,9.41E-13,,
,10.842994,4.04E-13,,
,10.844994,-2.53E-14,,
,10.846994,-7.77E-13,,
,10.848994,-7.77E-13,,
,10.850994,-5.62E-13,,
,10.852994,-2.40E-13,,
,10.854994,2.97E-13,,
,10.856994,6.19E-13,,
,10.858994,6.19E-13,,
,10.860994,-2.53E-14,,
,10.862994,-7.77E-13,,
,10.864994,-1.10E-12,,
,10.866994,-1.21E-12,,
,10.868994,-7.77E-13,,
,10.870994,-4.55E-13,,
,10.872994,-1.33E-13,,
,10.874994,-1.33E-13,,
,10.876994,-3.47E-13,,
,10.878994,-7.77E-13,,
,10.880994,-1.31E-12,,
,10.882994,-1.74E-12,,
,10.884994,-1.64E-12,,
,10.886994,-1.21E-12,,
,10.888994,-5.62E-13,,
,10.890994,-3.47E-13,,
,10.892994,-5.62E-13,,
,10.894994,-1.10E-12,,
,10.896994,-1.42E-12,,
,10.898994,-1.85E-12,,
,10.900994,-1.64E-12,,
,10.902994,-1.53E-12,,
,10.904994,-8.84E-13,,
,10.906994,-6.69E-13,,
,10.908994,-6.69E-13,,
,10.910994,-1.10E-12,,
,10.912994,-1.85E-12,,
,10.914994,-2.28E-12,,
,10.916994,-2.49E-12,,
,10.918994,-2.07E-12,,
,10.920994,-1.42E-12,,
,10.922994,-7.77E-13,,
,10.924994,-7.77E-13,,
,10.926994,-1.31E-12,,
,10.928994,-2.07E-12,,
,10.930994,-2.60E-12,,
,10.932994,-2.82E-12,,
,10.934994,-2.49E-12,,
,10.936994,-1.96E-12,,
,10.938994,-1.53E-12,,
,10.940994,-1.42E-12,,
,10.942994,-1.64E-12,,
,10.944994,-2.07E-12,,
,10.946994,-2.82E-12,,
,10.948994,-3.14E-12,,
,10.950994,-3.14E-12,,
,10.952994,-2.60E-12,,
,10.954994,-2.07E-12,,
,10.956994,-1.42E-12,,
,10.958994,-1.21E-12,,
,10.960994,-1.53E-12,,
,10.962994,-2.28E-12,,
,10.964994,-2.82E-12,,
,10.966994,-2.92E-12,,
,10.968994,-2.49E-12,,
,10.970994,-2.17E-12,,
,10.972994,-1.64E-12,,
,10.974994,-1.53E-12,,
,10.976994,-1.64E-12,,
,10.978994,-2.17E-12,,
,10.980994,-2.82E-12,,
,10.982994,-2.60E-12,,
,10.984994,-2.39E-12,,
,10.986994,-1.53E-12,,
,10.988994,-1.31E-12,,
,10.990994,-9.92E-13,,
,10.992994,-1.31E-12,,
,10.994994,-1.64E-12,,
,10.996994,-2.07E-12,,
,10.998994,-2.17E-12,,
,11.000994,-2.28E-12,,
,11.002994,-1.96E-12,,
,11.004994,-1.31E-12,,
,11.006994,-6.69E-13,,
,11.008994,-6.69E-13,,
,11.010994,-1.42E-12,,
,11.012994,-1.96E-12,,
,11.014994,-2.17E-12,,
,11.016994,-2.07E-12,,
,11.018994,-1.85E-12,,
,11.020994,-1.31E-12,,
,11.022994,-8.84E-13,,
,11.024994,-7.77E-13,,
,11.026994,-1.10E-12,,
,11.028994,-1.74E-12,,
,11.030994,-2.17E-12,,
,11.032994,-2.17E-12,,
,11.034994,-1.85E-12,,
,11.036994,-1.31E-12,,
,11.038994,-7.77E-13,,
