5/7/2019, 8:03:26 PM ,,,
 Current Sensitivity ,1.00E-09,,,
 This file comes from It only measurement ,0.00E+00,,,
 Sampling rate ,500,,,
 Number of samples per channel ,-1,,,
 No filter from Labview , , , ,
 , ,,,
 ***End_of_Header*** ,,,,
 , Time , Current , Filtered Current , 
,0.001003,-1.30E-11,,
,0.003003,-2.72E-11,,
,0.005003,-4.26E-11,,
,0.007003,-4.65E-11,,
,0.009003,-5.03E-11,,
,0.011003,-5.37E-11,,
,0.013003,-5.66E-11,,
,0.015003,-5.91E-11,,
,0.017003,-6.12E-11,,
,0.019003,-6.34E-11,,
,0.021003,-6.57E-11,,
,0.023003,-6.85E-11,,
,0.025003,-7.10E-11,,
,0.027003,-7.33E-11,,
,0.029003,-7.52E-11,,
,0.031003,-7.65E-11,,
,0.033003,-7.74E-11,,
,0.035003,-7.80E-11,,
,0.037003,-7.86E-11,,
,0.039003,-7.95E-11,,
,0.041003,-8.06E-11,,
,0.043003,-8.18E-11,,
,0.045003,-8.23E-11,,
,0.047003,-8.25E-11,,
,0.049003,-8.19E-11,,
,0.051003,-8.14E-11,,
,0.053003,-8.09E-11,,
,0.055003,-8.10E-11,,
,0.057003,-8.14E-11,,
,0.059003,-8.18E-11,,
,0.061003,-8.19E-11,,
,0.063003,-8.15E-11,,
,0.065003,-8.03E-11,,
,0.067003,-7.90E-11,,
,0.069003,-7.78E-11,,
,0.071003,-7.70E-11,,
,0.073003,-7.67E-11,,
,0.075003,-7.65E-11,,
,0.077003,-7.64E-11,,
,0.079003,-7.58E-11,,
,0.081003,-7.45E-11,,
,0.083003,-7.30E-11,,
,0.085003,-7.13E-11,,
,0.087003,-7.06E-11,,
,0.089003,-6.99E-11,,
,0.091003,-6.98E-11,,
,0.093003,-6.95E-11,,
,0.095003,-6.89E-11,,
,0.097003,-6.83E-11,,
,0.099003,-6.73E-11,,
,0.101003,-6.65E-11,,
,0.103003,-6.55E-11,,
,0.105003,-6.56E-11,,
,0.107003,-6.62E-11,,
,0.109003,-6.74E-11,,
,0.111003,-6.88E-11,,
,0.113003,-7.06E-11,,
,0.115003,-7.24E-11,,
,0.117003,-7.46E-11,,
,0.119003,-7.76E-11,,
,0.121003,-8.18E-11,,
,0.123003,-8.72E-11,,
,0.125003,-9.35E-11,,
,0.127003,-1.00E-10,,
,0.129003,-1.07E-10,,
,0.131003,-1.15E-10,,
,0.133003,-1.22E-10,,
,0.135003,-1.30E-10,,
,0.137003,-1.38E-10,,
,0.139003,-1.47E-10,,
,0.141003,-1.56E-10,,
,0.143003,-1.65E-10,,
,0.145003,-1.74E-10,,
,0.147003,-1.83E-10,,
,0.149003,-1.92E-10,,
,0.151003,-2.00E-10,,
,0.153003,-2.08E-10,,
,0.155003,-2.17E-10,,
,0.157003,-2.26E-10,,
,0.159003,-2.35E-10,,
,0.161003,-2.44E-10,,
,0.163003,-2.53E-10,,
,0.165003,-2.61E-10,,
,0.167003,-2.68E-10,,
,0.169003,-2.76E-10,,
,0.171003,-2.83E-10,,
,0.173003,-2.91E-10,,
,0.175003,-2.99E-10,,
,0.177003,-3.06E-10,,
,0.179003,-3.13E-10,,
,0.181003,-3.19E-10,,
,0.183003,-3.24E-10,,
,0.185003,-3.30E-10,,
,0.187003,-3.35E-10,,
,0.189003,-3.40E-10,,
,0.191003,-3.46E-10,,
,0.193003,-3.51E-10,,
,0.195003,-3.55E-10,,
,0.197003,-3.58E-10,,
,0.199003,-3.61E-10,,
,0.201003,-3.64E-10,,
,0.203003,-3.66E-10,,
,0.205003,-3.68E-10,,
,0.207003,-3.70E-10,,
,0.209003,-3.73E-10,,
,0.211003,-3.74E-10,,
,0.213003,-3.75E-10,,
,0.215003,-3.75E-10,,
,0.217003,-3.75E-10,,
,0.219003,-3.74E-10,,
,0.221003,-3.74E-10,,
,0.223003,-3.74E-10,,
,0.225003,-3.73E-10,,
,0.227003,-3.73E-10,,
,0.229003,-3.72E-10,,
,0.231003,-3.70E-10,,
,0.233003,-3.67E-10,,
,0.235003,-3.65E-10,,
,0.237003,-3.62E-10,,
,0.239003,-3.60E-10,,
,0.241003,-3.57E-10,,
,0.243003,-3.55E-10,,
,0.245003,-3.52E-10,,
,0.247003,-3.48E-10,,
,0.249003,-3.44E-10,,
,0.251003,-3.39E-10,,
,0.253003,-3.34E-10,,
,0.255003,-3.30E-10,,
,0.257003,-3.26E-10,,
,0.259003,-3.22E-10,,
,0.261003,-3.18E-10,,
,0.263003,-3.13E-10,,
,0.265003,-3.08E-10,,
,0.267003,-3.02E-10,,
,0.269003,-2.97E-10,,
,0.271003,-2.91E-10,,
,0.273003,-2.87E-10,,
,0.275003,-2.82E-10,,
,0.277003,-2.77E-10,,
,0.279003,-2.72E-10,,
,0.281003,-2.67E-10,,
,0.283003,-2.62E-10,,
,0.285003,-2.56E-10,,
,0.287003,-2.51E-10,,
,0.289003,-2.46E-10,,
,0.291003,-2.42E-10,,
,0.293003,-2.38E-10,,
,0.295003,-2.34E-10,,
,0.297003,-2.30E-10,,
,0.299003,-2.26E-10,,
,0.301003,-2.21E-10,,
,0.303003,-2.17E-10,,
,0.305003,-2.14E-10,,
,0.307003,-2.11E-10,,
,0.309003,-2.09E-10,,
,0.311003,-2.06E-10,,
,0.313003,-2.03E-10,,
,0.315003,-2.00E-10,,
,0.317003,-1.98E-10,,
,0.319003,-1.95E-10,,
,0.321003,-1.93E-10,,
,0.323003,-1.92E-10,,
,0.325003,-1.91E-10,,
,0.327003,-1.90E-10,,
,0.329003,-1.88E-10,,
,0.331003,-1.87E-10,,
,0.333003,-1.84E-10,,
,0.335003,-1.83E-10,,
,0.337003,-1.81E-10,,
,0.339003,-1.81E-10,,
,0.341003,-1.80E-10,,
,0.343003,-1.79E-10,,
,0.345003,-1.79E-10,,
,0.347003,-1.78E-10,,
,0.349003,-1.76E-10,,
,0.351003,-1.74E-10,,
,0.353003,-1.73E-10,,
,0.355003,-1.72E-10,,
,0.357003,-1.72E-10,,
,0.359003,-1.71E-10,,
,0.361003,-1.71E-10,,
,0.363003,-1.70E-10,,
,0.365003,-1.68E-10,,
,0.367003,-1.67E-10,,
,0.369003,-1.65E-10,,
,0.371003,-1.64E-10,,
,0.373003,-1.63E-10,,
,0.375003,-1.63E-10,,
,0.377003,-1.62E-10,,
,0.379003,-1.61E-10,,
,0.381003,-1.59E-10,,
,0.383003,-1.58E-10,,
,0.385003,-1.56E-10,,
,0.387003,-1.55E-10,,
,0.389003,-1.54E-10,,
,0.391003,-1.53E-10,,
,0.393003,-1.53E-10,,
,0.395003,-1.51E-10,,
,0.397003,-1.50E-10,,
,0.399003,-1.48E-10,,
,0.401003,-1.47E-10,,
,0.403003,-1.45E-10,,
,0.405003,-1.44E-10,,
,0.407003,-1.43E-10,,
,0.409003,-1.43E-10,,
,0.411003,-1.42E-10,,
,0.413003,-1.40E-10,,
,0.415003,-1.39E-10,,
,0.417003,-1.37E-10,,
,0.419003,-1.35E-10,,
,0.421003,-1.33E-10,,
,0.423003,-1.33E-10,,
,0.425003,-1.32E-10,,
,0.427003,-1.32E-10,,
,0.429003,-1.31E-10,,
,0.431003,-1.29E-10,,
,0.433003,-1.28E-10,,
,0.435003,-1.26E-10,,
,0.437003,-1.25E-10,,
,0.439003,-1.24E-10,,
,0.441003,-1.23E-10,,
,0.443003,-1.22E-10,,
,0.445003,-1.21E-10,,
,0.447003,-1.20E-10,,
,0.449003,-1.19E-10,,
,0.451003,-1.17E-10,,
,0.453003,-1.17E-10,,
,0.455003,-1.16E-10,,
,0.457003,-1.16E-10,,
,0.459003,-1.16E-10,,
,0.461003,-1.16E-10,,
,0.463003,-1.15E-10,,
,0.465003,-1.14E-10,,
,0.467003,-1.13E-10,,
,0.469003,-1.12E-10,,
,0.471003,-1.11E-10,,
,0.473003,-1.11E-10,,
,0.475003,-1.11E-10,,
,0.477003,-1.12E-10,,
,0.479003,-1.12E-10,,
,0.481003,-1.12E-10,,
,0.483003,-1.11E-10,,
,0.485003,-1.10E-10,,
,0.487003,-1.10E-10,,
,0.489003,-1.10E-10,,
,0.491003,-1.11E-10,,
,0.493003,-1.11E-10,,
,0.495003,-1.12E-10,,
,0.497003,-1.12E-10,,
,0.499003,-1.11E-10,,
,0.501003,-1.11E-10,,
,0.503003,-1.11E-10,,
,0.505003,-1.11E-10,,
,0.507003,-1.12E-10,,
,0.509003,-1.13E-10,,
,0.511003,-1.14E-10,,
,0.513003,-1.14E-10,,
,0.515003,-1.14E-10,,
,0.517003,-1.14E-10,,
,0.519003,-1.14E-10,,
,0.521003,-1.15E-10,,
,0.523003,-1.16E-10,,
,0.525003,-1.17E-10,,
,0.527003,-1.18E-10,,
,0.529003,-1.19E-10,,
,0.531003,-1.20E-10,,
,0.533003,-1.20E-10,,
,0.535003,-1.20E-10,,
,0.537003,-1.20E-10,,
,0.539003,-1.21E-10,,
,0.541003,-1.23E-10,,
,0.543003,-1.24E-10,,
,0.545003,-1.25E-10,,
,0.547003,-1.26E-10,,
,0.549003,-1.26E-10,,
,0.551003,-1.27E-10,,
,0.553003,-1.27E-10,,
,0.555003,-1.28E-10,,
,0.557003,-1.30E-10,,
,0.559003,-1.31E-10,,
,0.561003,-1.33E-10,,
,0.563003,-1.33E-10,,
,0.565003,-1.34E-10,,
,0.567003,-1.34E-10,,
,0.569003,-1.35E-10,,
,0.571003,-1.36E-10,,
,0.573003,-1.37E-10,,
,0.575003,-1.39E-10,,
,0.577003,-1.40E-10,,
,0.579003,-1.41E-10,,
,0.581003,-1.42E-10,,
,0.583003,-1.42E-10,,
,0.585003,-1.43E-10,,
,0.587003,-1.43E-10,,
,0.589003,-1.45E-10,,
,0.591003,-1.46E-10,,
,0.593003,-1.48E-10,,
,0.595003,-1.49E-10,,
,0.597003,-1.50E-10,,
,0.599003,-1.50E-10,,
,0.601003,-1.51E-10,,
,0.603003,-1.51E-10,,
,0.605003,-1.53E-10,,
,0.607003,-1.54E-10,,
,0.609003,-1.55E-10,,
,0.611003,-1.56E-10,,
,0.613003,-1.57E-10,,
,0.615003,-1.58E-10,,
,0.617003,-1.58E-10,,
,0.619003,-1.58E-10,,
,0.621003,-1.59E-10,,
,0.623003,-1.60E-10,,
,0.625003,-1.62E-10,,
,0.627003,-1.63E-10,,
,0.629003,-1.64E-10,,
,0.631003,-1.64E-10,,
,0.633003,-1.65E-10,,
,0.635003,-1.65E-10,,
,0.637003,-1.65E-10,,
,0.639003,-1.66E-10,,
,0.641003,-1.66E-10,,
,0.643003,-1.67E-10,,
,0.645003,-1.68E-10,,
,0.647003,-1.67E-10,,
,0.649003,-1.67E-10,,
,0.651003,-1.67E-10,,
,0.653003,-1.67E-10,,
,0.655003,-1.67E-10,,
,0.657003,-1.67E-10,,
,0.659003,-1.68E-10,,
,0.661003,-1.68E-10,,
,0.663003,-1.67E-10,,
,0.665003,-1.66E-10,,
,0.667003,-1.65E-10,,
,0.669003,-1.64E-10,,
,0.671003,-1.64E-10,,
,0.673003,-1.63E-10,,
,0.675003,-1.63E-10,,
,0.677003,-1.62E-10,,
,0.679003,-1.61E-10,,
,0.681003,-1.59E-10,,
,0.683003,-1.58E-10,,
,0.685003,-1.56E-10,,
,0.687003,-1.54E-10,,
,0.689003,-1.53E-10,,
,0.691003,-1.52E-10,,
,0.693003,-1.51E-10,,
,0.695003,-1.49E-10,,
,0.697003,-1.48E-10,,
,0.699003,-1.45E-10,,
,0.701003,-1.42E-10,,
,0.703003,-1.39E-10,,
,0.705003,-1.36E-10,,
,0.707003,-1.33E-10,,
,0.709003,-1.29E-10,,
,0.711003,-1.26E-10,,
,0.713003,-1.21E-10,,
,0.715003,-1.16E-10,,
,0.717003,-1.09E-10,,
,0.719003,-1.03E-10,,
,0.721003,-9.60E-11,,
,0.723003,-8.96E-11,,
,0.725003,-8.28E-11,,
,0.727003,-7.55E-11,,
,0.729003,-6.72E-11,,
,0.731003,-5.79E-11,,
,0.733003,-4.79E-11,,
,0.735003,-3.76E-11,,
,0.737003,-2.79E-11,,
,0.739003,-1.89E-11,,
,0.741003,-1.04E-11,,
,0.743003,-2.28E-12,,
,0.745003,5.77E-12,,
,0.747003,1.40E-11,,
,0.749003,2.25E-11,,
,0.751003,3.08E-11,,
,0.753003,3.82E-11,,
,0.755003,4.48E-11,,
,0.757003,5.05E-11,,
,0.759003,5.59E-11,,
,0.761003,6.07E-11,,
,0.763003,6.61E-11,,
,0.765003,7.15E-11,,
,0.767003,7.68E-11,,
,0.769003,8.17E-11,,
,0.771003,8.55E-11,,
,0.773003,8.84E-11,,
,0.775003,9.06E-11,,
,0.777003,9.26E-11,,
,0.779003,9.47E-11,,
,0.781003,9.71E-11,,
,0.783003,9.95E-11,,
,0.785003,1.02E-10,,
,0.787003,1.03E-10,,
,0.789003,1.04E-10,,
,0.791003,1.04E-10,,
,0.793003,1.04E-10,,
,0.795003,1.04E-10,,
,0.797003,1.04E-10,,
,0.799003,1.05E-10,,
,0.801003,1.05E-10,,
,0.803003,1.06E-10,,
,0.805003,1.05E-10,,
,0.807003,1.05E-10,,
,0.809003,1.03E-10,,
,0.811003,1.02E-10,,
,0.813003,1.02E-10,,
,0.815003,1.01E-10,,
,0.817003,1.01E-10,,
,0.819003,1.01E-10,,
,0.821003,1.01E-10,,
,0.823003,9.91E-11,,
,0.825003,9.71E-11,,
,0.827003,9.55E-11,,
,0.829003,9.47E-11,,
,0.831003,9.41E-11,,
,0.833003,9.40E-11,,
,0.835003,9.37E-11,,
,0.837003,9.34E-11,,
,0.839003,9.21E-11,,
,0.841003,9.07E-11,,
,0.843003,8.92E-11,,
,0.845003,8.83E-11,,
,0.847003,8.81E-11,,
,0.849003,8.82E-11,,
,0.851003,8.85E-11,,
,0.853003,8.81E-11,,
,0.855003,8.71E-11,,
,0.857003,8.53E-11,,
,0.859003,8.34E-11,,
,0.861003,8.20E-11,,
,0.863003,8.09E-11,,
,0.865003,8.06E-11,,
,0.867003,8.03E-11,,
,0.869003,8.02E-11,,
,0.871003,7.95E-11,,
,0.873003,7.83E-11,,
,0.875003,7.67E-11,,
,0.877003,7.51E-11,,
,0.879003,7.37E-11,,
,0.881003,7.27E-11,,
,0.883003,7.16E-11,,
,0.885003,7.05E-11,,
,0.887003,6.91E-11,,
,0.889003,6.71E-11,,
,0.891003,6.44E-11,,
,0.893003,6.17E-11,,
,0.895003,5.96E-11,,
,0.897003,5.79E-11,,
,0.899003,5.67E-11,,
,0.901003,5.56E-11,,
,0.903003,5.40E-11,,
,0.905003,5.16E-11,,
,0.907003,4.85E-11,,
,0.909003,4.53E-11,,
,0.911003,4.24E-11,,
,0.913003,3.98E-11,,
,0.915003,3.78E-11,,
,0.917003,3.59E-11,,
,0.919003,3.40E-11,,
,0.921003,3.15E-11,,
,0.923003,2.82E-11,,
,0.925003,2.49E-11,,
,0.927003,2.18E-11,,
,0.929003,1.95E-11,,
,0.931003,1.73E-11,,
,0.933003,1.51E-11,,
,0.935003,1.30E-11,,
,0.937003,1.07E-11,,
,0.939003,7.92E-12,,
,0.941003,4.27E-12,,
,0.943003,9.41E-13,,
,0.945003,-2.28E-12,,
,0.947003,-4.53E-12,,
,0.949003,-6.90E-12,,
,0.951003,-8.72E-12,,
,0.953003,-1.11E-11,,
,0.955003,-1.39E-11,,
,0.957003,-1.73E-11,,
,0.959003,-2.11E-11,,
,0.961003,-2.45E-11,,
,0.963003,-2.75E-11,,
,0.965003,-2.98E-11,,
,0.967003,-3.19E-11,,
,0.969003,-3.39E-11,,
,0.971003,-3.68E-11,,
,0.973003,-4.01E-11,,
,0.975003,-4.36E-11,,
,0.977003,-4.69E-11,,
,0.979003,-4.99E-11,,
,0.981003,-5.26E-11,,
,0.983003,-5.47E-11,,
,0.985003,-5.67E-11,,
,0.987003,-5.90E-11,,
,0.989003,-6.20E-11,,
,0.991003,-6.52E-11,,
,0.993003,-6.85E-11,,
,0.995003,-7.13E-11,,
,0.997003,-7.37E-11,,
,0.999003,-7.55E-11,,
,1.001003,-7.72E-11,,
,1.003003,-7.90E-11,,
,1.005003,-8.16E-11,,
,1.007003,-8.44E-11,,
,1.009003,-8.73E-11,,
,1.011003,-8.96E-11,,
,1.013003,-9.13E-11,,
,1.015003,-9.25E-11,,
,1.017003,-9.33E-11,,
,1.019003,-9.41E-11,,
,1.021003,-9.55E-11,,
,1.023003,-9.70E-11,,
,1.025003,-9.92E-11,,
,1.027003,-1.01E-10,,
,1.029003,-1.02E-10,,
,1.031003,-1.03E-10,,
,1.033003,-1.03E-10,,
,1.035003,-1.04E-10,,
,1.037003,-1.04E-10,,
,1.039003,-1.04E-10,,
,1.041003,-1.05E-10,,
,1.043003,-1.06E-10,,
,1.045003,-1.06E-10,,
,1.047003,-1.06E-10,,
,1.049003,-1.05E-10,,
,1.051003,-1.04E-10,,
,1.053003,-1.03E-10,,
,1.055003,-1.02E-10,,
,1.057003,-1.03E-10,,
,1.059003,-1.03E-10,,
,1.061003,-1.03E-10,,
,1.063003,-1.02E-10,,
,1.065003,-1.01E-10,,
,1.067003,-9.86E-11,,
,1.069003,-9.68E-11,,
,1.071003,-9.48E-11,,
,1.073003,-9.34E-11,,
,1.075003,-9.24E-11,,
,1.077003,-9.12E-11,,
,1.079003,-8.97E-11,,
,1.081003,-8.74E-11,,
,1.083003,-8.47E-11,,
,1.085003,-8.19E-11,,
,1.087003,-7.94E-11,,
,1.089003,-7.78E-11,,
,1.091003,-7.64E-11,,
,1.093003,-7.52E-11,,
,1.095003,-7.32E-11,,
,1.097003,-7.08E-11,,
,1.099003,-6.78E-11,,
,1.101003,-6.47E-11,,
,1.103003,-6.16E-11,,
,1.105003,-5.95E-11,,
,1.107003,-5.77E-11,,
,1.109003,-5.62E-11,,
,1.111003,-5.40E-11,,
,1.113003,-5.14E-11,,
,1.115003,-4.83E-11,,
,1.117003,-4.52E-11,,
,1.119003,-4.21E-11,,
,1.121003,-3.97E-11,,
,1.123003,-3.78E-11,,
,1.125003,-3.65E-11,,
,1.127003,-3.49E-11,,
,1.129003,-3.28E-11,,
,1.131003,-3.01E-11,,
,1.133003,-2.73E-11,,
,1.135003,-2.45E-11,,
,1.137003,-2.21E-11,,
,1.139003,-2.01E-11,,
,1.141003,-1.86E-11,,
,1.143003,-1.72E-11,,
,1.145003,-1.55E-11,,
,1.147003,-1.32E-11,,
,1.149003,-1.07E-11,,
,1.151003,-8.29E-12,,
,1.153003,-6.47E-12,,
,1.155003,-5.18E-12,,
,1.157003,-4.64E-12,,
,1.159003,-4.32E-12,,
,1.161003,-4.00E-12,,
,1.163003,-3.03E-12,,
,1.165003,-1.96E-12,,
,1.167003,-4.55E-13,,
,1.169003,6.19E-13,,
,1.171003,1.26E-12,,
,1.173003,9.41E-13,,
,1.175003,2.97E-13,,
,1.177003,-3.47E-13,,
,1.179003,-6.69E-13,,
,1.181003,-8.84E-13,,
,1.183003,-8.84E-13,,
,1.185003,-1.42E-12,,
,1.187003,-2.39E-12,,
,1.189003,-4.53E-12,,
,1.191003,-7.22E-12,,
,1.193003,-1.01E-11,,
,1.195003,-1.29E-11,,
,1.197003,-1.54E-11,,
,1.199003,-1.74E-11,,
,1.201003,-1.89E-11,,
,1.203003,-2.05E-11,,
,1.205003,-2.31E-11,,
,1.207003,-2.64E-11,,
,1.209003,-3.00E-11,,
,1.211003,-3.31E-11,,
,1.213003,-3.58E-11,,
,1.215003,-3.77E-11,,
,1.217003,-3.94E-11,,
,1.219003,-4.11E-11,,
,1.221003,-4.34E-11,,
,1.223003,-4.61E-11,,
,1.225003,-4.92E-11,,
,1.227003,-5.21E-11,,
,1.229003,-5.40E-11,,
,1.231003,-5.52E-11,,
,1.233003,-5.61E-11,,
,1.235003,-5.72E-11,,
,1.237003,-5.85E-11,,
,1.239003,-6.04E-11,,
,1.241003,-6.23E-11,,
,1.243003,-6.41E-11,,
,1.245003,-6.52E-11,,
,1.247003,-6.58E-11,,
,1.249003,-6.57E-11,,
,1.251003,-6.54E-11,,
,1.253003,-6.54E-11,,
,1.255003,-6.62E-11,,
,1.257003,-6.76E-11,,
,1.259003,-6.86E-11,,
,1.261003,-6.94E-11,,
,1.263003,-6.94E-11,,
,1.265003,-6.91E-11,,
,1.267003,-6.82E-11,,
,1.269003,-6.79E-11,,
,1.271003,-6.78E-11,,
,1.273003,-6.86E-11,,
,1.275003,-6.93E-11,,
,1.277003,-7.01E-11,,
,1.279003,-7.01E-11,,
,1.281003,-6.99E-11,,
,1.283003,-6.92E-11,,
,1.285003,-6.87E-11,,
,1.287003,-6.86E-11,,
,1.289003,-6.96E-11,,
,1.291003,-7.11E-11,,
,1.293003,-7.28E-11,,
,1.295003,-7.40E-11,,
,1.297003,-7.47E-11,,
,1.299003,-7.50E-11,,
,1.301003,-7.52E-11,,
,1.303003,-7.57E-11,,
,1.305003,-7.70E-11,,
,1.307003,-7.89E-11,,
,1.309003,-8.11E-11,,
,1.311003,-8.29E-11,,
,1.313003,-8.43E-11,,
,1.315003,-8.52E-11,,
,1.317003,-8.60E-11,,
,1.319003,-8.71E-11,,
,1.321003,-8.88E-11,,
,1.323003,-9.14E-11,,
,1.325003,-9.44E-11,,
,1.327003,-9.73E-11,,
,1.329003,-9.93E-11,,
,1.331003,-1.01E-10,,
,1.333003,-1.02E-10,,
,1.335003,-1.03E-10,,
,1.337003,-1.05E-10,,
,1.339003,-1.08E-10,,
,1.341003,-1.11E-10,,
,1.343003,-1.14E-10,,
,1.345003,-1.16E-10,,
,1.347003,-1.19E-10,,
,1.349003,-1.20E-10,,
,1.351003,-1.22E-10,,
,1.353003,-1.24E-10,,
,1.355003,-1.26E-10,,
,1.357003,-1.29E-10,,
,1.359003,-1.33E-10,,
,1.361003,-1.36E-10,,
,1.363003,-1.39E-10,,
,1.365003,-1.40E-10,,
,1.367003,-1.42E-10,,
,1.369003,-1.44E-10,,
,1.371003,-1.47E-10,,
,1.373003,-1.50E-10,,
,1.375003,-1.53E-10,,
,1.377003,-1.56E-10,,
,1.379003,-1.59E-10,,
,1.381003,-1.61E-10,,
,1.383003,-1.63E-10,,
,1.385003,-1.65E-10,,
,1.387003,-1.67E-10,,
,1.389003,-1.70E-10,,
,1.391003,-1.74E-10,,
,1.393003,-1.77E-10,,
,1.395003,-1.80E-10,,
,1.397003,-1.82E-10,,
,1.399003,-1.84E-10,,
,1.401003,-1.85E-10,,
,1.403003,-1.87E-10,,
,1.405003,-1.90E-10,,
,1.407003,-1.93E-10,,
,1.409003,-1.97E-10,,
,1.411003,-2.00E-10,,
,1.413003,-2.02E-10,,
,1.415003,-2.04E-10,,
,1.417003,-2.06E-10,,
,1.419003,-2.08E-10,,
,1.421003,-2.10E-10,,
,1.423003,-2.13E-10,,
,1.425003,-2.17E-10,,
,1.427003,-2.21E-10,,
,1.429003,-2.24E-10,,
,1.431003,-2.26E-10,,
,1.433003,-2.28E-10,,
,1.435003,-2.30E-10,,
,1.437003,-2.33E-10,,
,1.439003,-2.37E-10,,
,1.441003,-2.41E-10,,
,1.443003,-2.45E-10,,
,1.445003,-2.49E-10,,
,1.447003,-2.53E-10,,
,1.449003,-2.56E-10,,
,1.451003,-2.58E-10,,
,1.453003,-2.62E-10,,
,1.455003,-2.66E-10,,
,1.457003,-2.71E-10,,
,1.459003,-2.76E-10,,
,1.461003,-2.80E-10,,
,1.463003,-2.84E-10,,
,1.465003,-2.88E-10,,
,1.467003,-2.91E-10,,
,1.469003,-2.95E-10,,
,1.471003,-2.99E-10,,
,1.473003,-3.04E-10,,
,1.475003,-3.10E-10,,
,1.477003,-3.15E-10,,
,1.479003,-3.19E-10,,
,1.481003,-3.23E-10,,
,1.483003,-3.26E-10,,
,1.485003,-3.29E-10,,
,1.487003,-3.33E-10,,
,1.489003,-3.38E-10,,
,1.491003,-3.43E-10,,
,1.493003,-3.47E-10,,
,1.495003,-3.52E-10,,
,1.497003,-3.55E-10,,
,1.499003,-3.57E-10,,
,1.501003,-3.60E-10,,
,1.503003,-3.62E-10,,
,1.505003,-3.65E-10,,
,1.507003,-3.69E-10,,
,1.509003,-3.72E-10,,
,1.511003,-3.75E-10,,
,1.513003,-3.77E-10,,
,1.515003,-3.78E-10,,
,1.517003,-3.79E-10,,
,1.519003,-3.80E-10,,
,1.521003,-3.81E-10,,
,1.523003,-3.83E-10,,
,1.525003,-3.85E-10,,
,1.527003,-3.87E-10,,
,1.529003,-3.88E-10,,
,1.531003,-3.88E-10,,
,1.533003,-3.87E-10,,
,1.535003,-3.86E-10,,
,1.537003,-3.86E-10,,
,1.539003,-3.85E-10,,
,1.541003,-3.86E-10,,
,1.543003,-3.86E-10,,
,1.545003,-3.85E-10,,
,1.547003,-3.83E-10,,
,1.549003,-3.81E-10,,
,1.551003,-3.79E-10,,
,1.553003,-3.77E-10,,
,1.555003,-3.75E-10,,
,1.557003,-3.75E-10,,
,1.559003,-3.74E-10,,
,1.561003,-3.72E-10,,
,1.563003,-3.70E-10,,
,1.565003,-3.68E-10,,
,1.567003,-3.65E-10,,
,1.569003,-3.62E-10,,
,1.571003,-3.59E-10,,
,1.573003,-3.58E-10,,
,1.575003,-3.56E-10,,
,1.577003,-3.54E-10,,
,1.579003,-3.51E-10,,
,1.581003,-3.48E-10,,
,1.583003,-3.45E-10,,
,1.585003,-3.41E-10,,
,1.587003,-3.38E-10,,
,1.589003,-3.36E-10,,
,1.591003,-3.34E-10,,
,1.593003,-3.31E-10,,
,1.595003,-3.28E-10,,
,1.597003,-3.25E-10,,
,1.599003,-3.21E-10,,
,1.601003,-3.16E-10,,
,1.603003,-3.12E-10,,
,1.605003,-3.08E-10,,
,1.607003,-3.05E-10,,
,1.609003,-3.02E-10,,
,1.611003,-2.98E-10,,
,1.613003,-2.94E-10,,
,1.615003,-2.89E-10,,
,1.617003,-2.84E-10,,
,1.619003,-2.79E-10,,
,1.621003,-2.75E-10,,
,1.623003,-2.72E-10,,
,1.625003,-2.69E-10,,
,1.627003,-2.65E-10,,
,1.629003,-2.62E-10,,
,1.631003,-2.57E-10,,
,1.633003,-2.52E-10,,
,1.635003,-2.47E-10,,
,1.637003,-2.43E-10,,
,1.639003,-2.39E-10,,
,1.641003,-2.36E-10,,
,1.643003,-2.33E-10,,
,1.645003,-2.29E-10,,
,1.647003,-2.25E-10,,
,1.649003,-2.21E-10,,
,1.651003,-2.16E-10,,
,1.653003,-2.12E-10,,
,1.655003,-2.08E-10,,
,1.657003,-2.06E-10,,
,1.659003,-2.03E-10,,
,1.661003,-2.01E-10,,
,1.663003,-1.98E-10,,
,1.665003,-1.94E-10,,
,1.667003,-1.90E-10,,
,1.669003,-1.86E-10,,
,1.671003,-1.83E-10,,
,1.673003,-1.81E-10,,
,1.675003,-1.79E-10,,
,1.677003,-1.77E-10,,
,1.679003,-1.74E-10,,
,1.681003,-1.71E-10,,
,1.683003,-1.68E-10,,
,1.685003,-1.65E-10,,
,1.687003,-1.62E-10,,
,1.689003,-1.60E-10,,
,1.691003,-1.59E-10,,
,1.693003,-1.58E-10,,
,1.695003,-1.57E-10,,
,1.697003,-1.55E-10,,
,1.699003,-1.53E-10,,
,1.701003,-1.51E-10,,
,1.703003,-1.49E-10,,
,1.705003,-1.49E-10,,
,1.707003,-1.48E-10,,
,1.709003,-1.48E-10,,
,1.711003,-1.48E-10,,
,1.713003,-1.47E-10,,
,1.715003,-1.46E-10,,
,1.717003,-1.44E-10,,
,1.719003,-1.43E-10,,
,1.721003,-1.42E-10,,
,1.723003,-1.42E-10,,
,1.725003,-1.43E-10,,
,1.727003,-1.43E-10,,
,1.729003,-1.43E-10,,
,1.731003,-1.43E-10,,
,1.733003,-1.42E-10,,
,1.735003,-1.41E-10,,
,1.737003,-1.40E-10,,
,1.739003,-1.40E-10,,
,1.741003,-1.40E-10,,
,1.743003,-1.40E-10,,
,1.745003,-1.40E-10,,
,1.747003,-1.39E-10,,
,1.749003,-1.38E-10,,
,1.751003,-1.37E-10,,
,1.753003,-1.36E-10,,
,1.755003,-1.36E-10,,
,1.757003,-1.37E-10,,
,1.759003,-1.38E-10,,
,1.761003,-1.39E-10,,
,1.763003,-1.39E-10,,
,1.765003,-1.38E-10,,
,1.767003,-1.38E-10,,
,1.769003,-1.37E-10,,
,1.771003,-1.38E-10,,
,1.773003,-1.39E-10,,
,1.775003,-1.40E-10,,
,1.777003,-1.41E-10,,
,1.779003,-1.42E-10,,
,1.781003,-1.43E-10,,
,1.783003,-1.43E-10,,
,1.785003,-1.43E-10,,
,1.787003,-1.44E-10,,
,1.789003,-1.46E-10,,
,1.791003,-1.48E-10,,
,1.793003,-1.50E-10,,
,1.795003,-1.52E-10,,
,1.797003,-1.53E-10,,
,1.799003,-1.54E-10,,
,1.801003,-1.54E-10,,
,1.803003,-1.55E-10,,
,1.805003,-1.56E-10,,
,1.807003,-1.58E-10,,
,1.809003,-1.60E-10,,
,1.811003,-1.62E-10,,
,1.813003,-1.64E-10,,
,1.815003,-1.65E-10,,
,1.817003,-1.65E-10,,
,1.819003,-1.66E-10,,
,1.821003,-1.68E-10,,
,1.823003,-1.70E-10,,
,1.825003,-1.72E-10,,
,1.827003,-1.74E-10,,
,1.829003,-1.75E-10,,
,1.831003,-1.77E-10,,
,1.833003,-1.77E-10,,
,1.835003,-1.78E-10,,
,1.837003,-1.79E-10,,
,1.839003,-1.81E-10,,
,1.841003,-1.83E-10,,
,1.843003,-1.85E-10,,
,1.845003,-1.86E-10,,
,1.847003,-1.87E-10,,
,1.849003,-1.87E-10,,
,1.851003,-1.88E-10,,
,1.853003,-1.88E-10,,
,1.855003,-1.90E-10,,
,1.857003,-1.92E-10,,
,1.859003,-1.94E-10,,
,1.861003,-1.96E-10,,
,1.863003,-1.97E-10,,
,1.865003,-1.98E-10,,
,1.867003,-1.98E-10,,
,1.869003,-1.99E-10,,
,1.871003,-2.00E-10,,
,1.873003,-2.02E-10,,
,1.875003,-2.04E-10,,
,1.877003,-2.06E-10,,
,1.879003,-2.08E-10,,
,1.881003,-2.09E-10,,
,1.883003,-2.09E-10,,
,1.885003,-2.10E-10,,
,1.887003,-2.11E-10,,
,1.889003,-2.13E-10,,
,1.891003,-2.15E-10,,
,1.893003,-2.17E-10,,
,1.895003,-2.19E-10,,
,1.897003,-2.20E-10,,
,1.899003,-2.21E-10,,
,1.901003,-2.21E-10,,
,1.903003,-2.22E-10,,
,1.905003,-2.24E-10,,
,1.907003,-2.26E-10,,
,1.909003,-2.28E-10,,
,1.911003,-2.30E-10,,
,1.913003,-2.31E-10,,
,1.915003,-2.31E-10,,
,1.917003,-2.31E-10,,
,1.919003,-2.32E-10,,
,1.921003,-2.33E-10,,
,1.923003,-2.35E-10,,
,1.925003,-2.37E-10,,
,1.927003,-2.38E-10,,
,1.929003,-2.40E-10,,
,1.931003,-2.40E-10,,
,1.933003,-2.41E-10,,
,1.935003,-2.41E-10,,
,1.937003,-2.42E-10,,
,1.939003,-2.43E-10,,
,1.941003,-2.45E-10,,
,1.943003,-2.46E-10,,
,1.945003,-2.48E-10,,
,1.947003,-2.48E-10,,
,1.949003,-2.49E-10,,
,1.951003,-2.49E-10,,
,1.953003,-2.49E-10,,
,1.955003,-2.51E-10,,
,1.957003,-2.52E-10,,
,1.959003,-2.54E-10,,
,1.961003,-2.56E-10,,
,1.963003,-2.57E-10,,
,1.965003,-2.59E-10,,
,1.967003,-2.59E-10,,
,1.969003,-2.60E-10,,
,1.971003,-2.61E-10,,
,1.973003,-2.63E-10,,
,1.975003,-2.65E-10,,
,1.977003,-2.66E-10,,
,1.979003,-2.67E-10,,
,1.981003,-2.68E-10,,
,1.983003,-2.68E-10,,
,1.985003,-2.68E-10,,
,1.987003,-2.69E-10,,
,1.989003,-2.70E-10,,
,1.991003,-2.72E-10,,
,1.993003,-2.73E-10,,
,1.995003,-2.74E-10,,
,1.997003,-2.75E-10,,
,1.999003,-2.75E-10,,
,2.001003,-2.75E-10,,
,2.003003,-2.75E-10,,
,2.005003,-2.76E-10,,
,2.007003,-2.77E-10,,
,2.009003,-2.78E-10,,
,2.011003,-2.79E-10,,
,2.013003,-2.79E-10,,
,2.015003,-2.78E-10,,
,2.017003,-2.78E-10,,
,2.019003,-2.78E-10,,
,2.021003,-2.78E-10,,
,2.023003,-2.79E-10,,
,2.025003,-2.80E-10,,
,2.027003,-2.81E-10,,
,2.029003,-2.81E-10,,
,2.031003,-2.81E-10,,
,2.033003,-2.80E-10,,
,2.035003,-2.80E-10,,
,2.037003,-2.79E-10,,
,2.039003,-2.80E-10,,
,2.041003,-2.80E-10,,
,2.043003,-2.81E-10,,
,2.045003,-2.81E-10,,
,2.047003,-2.80E-10,,
,2.049003,-2.80E-10,,
,2.051003,-2.79E-10,,
,2.053003,-2.78E-10,,
,2.055003,-2.78E-10,,
,2.057003,-2.78E-10,,
,2.059003,-2.79E-10,,
,2.061003,-2.79E-10,,
,2.063003,-2.79E-10,,
,2.065003,-2.77E-10,,
,2.067003,-2.76E-10,,
,2.069003,-2.76E-10,,
,2.071003,-2.75E-10,,
,2.073003,-2.75E-10,,
,2.075003,-2.76E-10,,
,2.077003,-2.76E-10,,
,2.079003,-2.75E-10,,
,2.081003,-2.74E-10,,
,2.083003,-2.72E-10,,
,2.085003,-2.71E-10,,
,2.087003,-2.70E-10,,
,2.089003,-2.69E-10,,
,2.091003,-2.69E-10,,
,2.093003,-2.69E-10,,
,2.095003,-2.69E-10,,
,2.097003,-2.67E-10,,
,2.099003,-2.66E-10,,
,2.101003,-2.64E-10,,
,2.103003,-2.63E-10,,
,2.105003,-2.62E-10,,
,2.107003,-2.62E-10,,
,2.109003,-2.61E-10,,
,2.111003,-2.60E-10,,
,2.113003,-2.58E-10,,
,2.115003,-2.56E-10,,
,2.117003,-2.54E-10,,
,2.119003,-2.53E-10,,
,2.121003,-2.51E-10,,
,2.123003,-2.50E-10,,
,2.125003,-2.50E-10,,
,2.127003,-2.49E-10,,
,2.129003,-2.48E-10,,
,2.131003,-2.46E-10,,
,2.133003,-2.44E-10,,
,2.135003,-2.42E-10,,
,2.137003,-2.41E-10,,
,2.139003,-2.40E-10,,
,2.141003,-2.39E-10,,
,2.143003,-2.38E-10,,
,2.145003,-2.37E-10,,
,2.147003,-2.36E-10,,
,2.149003,-2.34E-10,,
,2.151003,-2.32E-10,,
,2.153003,-2.31E-10,,
,2.155003,-2.30E-10,,
,2.157003,-2.29E-10,,
,2.159003,-2.29E-10,,
,2.161003,-2.29E-10,,
,2.163003,-2.28E-10,,
,2.165003,-2.26E-10,,
,2.167003,-2.24E-10,,
,2.169003,-2.23E-10,,
,2.171003,-2.22E-10,,
,2.173003,-2.22E-10,,
,2.175003,-2.22E-10,,
,2.177003,-2.21E-10,,
,2.179003,-2.21E-10,,
,2.181003,-2.19E-10,,
,2.183003,-2.18E-10,,
,2.185003,-2.16E-10,,
,2.187003,-2.15E-10,,
,2.189003,-2.15E-10,,
,2.191003,-2.15E-10,,
,2.193003,-2.15E-10,,
,2.195003,-2.14E-10,,
,2.197003,-2.13E-10,,
,2.199003,-2.12E-10,,
,2.201003,-2.11E-10,,
,2.203003,-2.10E-10,,
,2.205003,-2.09E-10,,
,2.207003,-2.10E-10,,
,2.209003,-2.10E-10,,
,2.211003,-2.09E-10,,
,2.213003,-2.08E-10,,
,2.215003,-2.07E-10,,
,2.217003,-2.06E-10,,
,2.219003,-2.04E-10,,
,2.221003,-2.03E-10,,
,2.223003,-2.03E-10,,
,2.225003,-2.03E-10,,
,2.227003,-2.03E-10,,
,2.229003,-2.02E-10,,
,2.231003,-2.01E-10,,
,2.233003,-1.99E-10,,
,2.235003,-1.98E-10,,
,2.237003,-1.97E-10,,
,2.239003,-1.96E-10,,
,2.241003,-1.96E-10,,
,2.243003,-1.96E-10,,
,2.245003,-1.95E-10,,
,2.247003,-1.93E-10,,
,2.249003,-1.91E-10,,
,2.251003,-1.90E-10,,
,2.253003,-1.88E-10,,
,2.255003,-1.87E-10,,
,2.257003,-1.87E-10,,
,2.259003,-1.86E-10,,
,2.261003,-1.85E-10,,
,2.263003,-1.84E-10,,
,2.265003,-1.82E-10,,
,2.267003,-1.80E-10,,
,2.269003,-1.78E-10,,
,2.271003,-1.77E-10,,
,2.273003,-1.75E-10,,
,2.275003,-1.74E-10,,
,2.277003,-1.73E-10,,
,2.279003,-1.72E-10,,
,2.281003,-1.70E-10,,
,2.283003,-1.67E-10,,
,2.285003,-1.65E-10,,
,2.287003,-1.63E-10,,
,2.289003,-1.61E-10,,
,2.291003,-1.60E-10,,
,2.293003,-1.59E-10,,
,2.295003,-1.58E-10,,
,2.297003,-1.56E-10,,
,2.299003,-1.53E-10,,
,2.301003,-1.51E-10,,
,2.303003,-1.48E-10,,
,2.305003,-1.47E-10,,
,2.307003,-1.46E-10,,
,2.309003,-1.44E-10,,
,2.311003,-1.42E-10,,
,2.313003,-1.40E-10,,
,2.315003,-1.37E-10,,
,2.317003,-1.34E-10,,
,2.319003,-1.32E-10,,
,2.321003,-1.30E-10,,
,2.323003,-1.28E-10,,
,2.325003,-1.27E-10,,
,2.327003,-1.25E-10,,
,2.329003,-1.23E-10,,
,2.331003,-1.21E-10,,
,2.333003,-1.18E-10,,
,2.335003,-1.16E-10,,
,2.337003,-1.13E-10,,
,2.339003,-1.12E-10,,
,2.341003,-1.10E-10,,
,2.343003,-1.09E-10,,
,2.345003,-1.07E-10,,
,2.347003,-1.05E-10,,
,2.349003,-1.03E-10,,
,2.351003,-1.00E-10,,
,2.353003,-9.83E-11,,
,2.355003,-9.69E-11,,
,2.357003,-9.61E-11,,
,2.359003,-9.56E-11,,
,2.361003,-9.47E-11,,
,2.363003,-9.34E-11,,
,2.365003,-9.16E-11,,
,2.367003,-8.99E-11,,
,2.369003,-8.85E-11,,
,2.371003,-8.75E-11,,
,2.373003,-8.76E-11,,
,2.375003,-8.78E-11,,
,2.377003,-8.82E-11,,
,2.379003,-8.77E-11,,
,2.381003,-8.73E-11,,
,2.383003,-8.67E-11,,
,2.385003,-8.64E-11,,
,2.387003,-8.68E-11,,
,2.389003,-8.79E-11,,
,2.391003,-8.97E-11,,
,2.393003,-9.18E-11,,
,2.395003,-9.40E-11,,
,2.397003,-9.60E-11,,
,2.399003,-9.79E-11,,
,2.401003,-1.00E-10,,
,2.403003,-1.03E-10,,
,2.405003,-1.08E-10,,
,2.407003,-1.13E-10,,
,2.409003,-1.19E-10,,
,2.411003,-1.25E-10,,
,2.413003,-1.31E-10,,
,2.415003,-1.37E-10,,
,2.417003,-1.43E-10,,
,2.419003,-1.50E-10,,
,2.421003,-1.58E-10,,
,2.423003,-1.67E-10,,
,2.425003,-1.76E-10,,
,2.427003,-1.85E-10,,
,2.429003,-1.93E-10,,
,2.431003,-2.01E-10,,
,2.433003,-2.09E-10,,
,2.435003,-2.17E-10,,
,2.437003,-2.25E-10,,
,2.439003,-2.34E-10,,
,2.441003,-2.42E-10,,
,2.443003,-2.50E-10,,
,2.445003,-2.58E-10,,
,2.447003,-2.64E-10,,
,2.449003,-2.70E-10,,
,2.451003,-2.75E-10,,
,2.453003,-2.80E-10,,
,2.455003,-2.86E-10,,
,2.457003,-2.91E-10,,
,2.459003,-2.96E-10,,
,2.461003,-3.01E-10,,
,2.463003,-3.04E-10,,
,2.465003,-3.06E-10,,
,2.467003,-3.08E-10,,
,2.469003,-3.10E-10,,
,2.471003,-3.12E-10,,
,2.473003,-3.14E-10,,
,2.475003,-3.15E-10,,
,2.477003,-3.16E-10,,
,2.479003,-3.16E-10,,
,2.481003,-3.15E-10,,
,2.483003,-3.14E-10,,
,2.485003,-3.12E-10,,
,2.487003,-3.10E-10,,
,2.489003,-3.09E-10,,
,2.491003,-3.08E-10,,
,2.493003,-3.06E-10,,
,2.495003,-3.04E-10,,
,2.497003,-3.00E-10,,
,2.499003,-2.97E-10,,
,2.501003,-2.93E-10,,
,2.503003,-2.90E-10,,
,2.505003,-2.87E-10,,
,2.507003,-2.84E-10,,
,2.509003,-2.81E-10,,
,2.511003,-2.77E-10,,
,2.513003,-2.74E-10,,
,2.515003,-2.69E-10,,
,2.517003,-2.64E-10,,
,2.519003,-2.60E-10,,
,2.521003,-2.55E-10,,
,2.523003,-2.52E-10,,
,2.525003,-2.48E-10,,
,2.527003,-2.44E-10,,
,2.529003,-2.40E-10,,
,2.531003,-2.35E-10,,
,2.533003,-2.30E-10,,
,2.535003,-2.25E-10,,
,2.537003,-2.21E-10,,
,2.539003,-2.17E-10,,
,2.541003,-2.14E-10,,
,2.543003,-2.10E-10,,
,2.545003,-2.06E-10,,
,2.547003,-2.02E-10,,
,2.549003,-1.97E-10,,
,2.551003,-1.92E-10,,
,2.553003,-1.87E-10,,
,2.555003,-1.83E-10,,
,2.557003,-1.80E-10,,
,2.559003,-1.77E-10,,
,2.561003,-1.74E-10,,
,2.563003,-1.70E-10,,
,2.565003,-1.65E-10,,
,2.567003,-1.61E-10,,
,2.569003,-1.56E-10,,
,2.571003,-1.53E-10,,
,2.573003,-1.50E-10,,
,2.575003,-1.47E-10,,
,2.577003,-1.44E-10,,
,2.579003,-1.40E-10,,
,2.581003,-1.36E-10,,
,2.583003,-1.32E-10,,
,2.585003,-1.28E-10,,
,2.587003,-1.25E-10,,
,2.589003,-1.22E-10,,
,2.591003,-1.19E-10,,
,2.593003,-1.16E-10,,
,2.595003,-1.13E-10,,
,2.597003,-1.09E-10,,
,2.599003,-1.05E-10,,
,2.601003,-1.02E-10,,
,2.603003,-9.81E-11,,
,2.605003,-9.53E-11,,
,2.607003,-9.27E-11,,
,2.609003,-9.03E-11,,
,2.611003,-8.75E-11,,
,2.613003,-8.43E-11,,
,2.615003,-8.04E-11,,
,2.617003,-7.67E-11,,
,2.619003,-7.33E-11,,
,2.621003,-7.06E-11,,
,2.623003,-6.83E-11,,
,2.625003,-6.60E-11,,
,2.627003,-6.40E-11,,
,2.629003,-6.13E-11,,
,2.631003,-5.84E-11,,
,2.633003,-5.53E-11,,
,2.635003,-5.24E-11,,
,2.637003,-4.97E-11,,
,2.639003,-4.76E-11,,
,2.641003,-4.59E-11,,
,2.643003,-4.43E-11,,
,2.645003,-4.20E-11,,
,2.647003,-3.92E-11,,
,2.649003,-3.61E-11,,
,2.651003,-3.30E-11,,
,2.653003,-3.03E-11,,
,2.655003,-2.78E-11,,
,2.657003,-2.59E-11,,
,2.659003,-2.41E-11,,
,2.661003,-2.21E-11,,
,2.663003,-1.98E-11,,
,2.665003,-1.70E-11,,
,2.667003,-1.38E-11,,
,2.669003,-1.08E-11,,
,2.671003,-8.61E-12,,
,2.673003,-7.22E-12,,
,2.675003,-6.14E-12,,
,2.677003,-4.32E-12,,
,2.679003,-2.07E-12,,
,2.681003,8.34E-13,,
,2.683003,3.62E-12,,
,2.685003,6.31E-12,,
,2.687003,8.46E-12,,
,2.689003,1.01E-11,,
,2.691003,1.11E-11,,
,2.693003,1.24E-11,,
,2.695003,1.39E-11,,
,2.697003,1.60E-11,,
,2.699003,1.82E-11,,
,2.701003,2.07E-11,,
,2.703003,2.28E-11,,
,2.705003,2.45E-11,,
,2.707003,2.55E-11,,
,2.709003,2.66E-11,,
,2.711003,2.80E-11,,
,2.713003,2.99E-11,,
,2.715003,3.22E-11,,
,2.717003,3.45E-11,,
,2.719003,3.68E-11,,
,2.721003,3.86E-11,,
,2.723003,4.00E-11,,
,2.725003,4.08E-11,,
,2.727003,4.22E-11,,
,2.729003,4.38E-11,,
,2.731003,4.61E-11,,
,2.733003,4.83E-11,,
,2.735003,5.05E-11,,
,2.737003,5.25E-11,,
,2.739003,5.39E-11,,
,2.741003,5.50E-11,,
,2.743003,5.62E-11,,
,2.745003,5.78E-11,,
,2.747003,6.01E-11,,
,2.749003,6.27E-11,,
,2.751003,6.54E-11,,
,2.753003,6.75E-11,,
,2.755003,6.92E-11,,
,2.757003,7.05E-11,,
,2.759003,7.18E-11,,
,2.761003,7.34E-11,,
,2.763003,7.51E-11,,
,2.765003,7.75E-11,,
,2.767003,8.01E-11,,
,2.769003,8.25E-11,,
,2.771003,8.42E-11,,
,2.773003,8.54E-11,,
,2.775003,8.64E-11,,
,2.777003,8.78E-11,,
,2.779003,8.96E-11,,
,2.781003,9.21E-11,,
,2.783003,9.43E-11,,
,2.785003,9.63E-11,,
,2.787003,9.79E-11,,
,2.789003,9.88E-11,,
,2.791003,9.96E-11,,
,2.793003,1.00E-10,,
,2.795003,1.01E-10,,
,2.797003,1.02E-10,,
,2.799003,1.04E-10,,
,2.801003,1.06E-10,,
,2.803003,1.06E-10,,
,2.805003,1.06E-10,,
,2.807003,1.06E-10,,
,2.809003,1.05E-10,,
,2.811003,1.04E-10,,
,2.813003,1.04E-10,,
,2.815003,1.04E-10,,
,2.817003,1.04E-10,,
,2.819003,1.03E-10,,
,2.821003,1.02E-10,,
,2.823003,1.00E-10,,
,2.825003,9.81E-11,,
,2.827003,9.56E-11,,
,2.829003,9.35E-11,,
,2.831003,9.18E-11,,
,2.833003,8.97E-11,,
,2.835003,8.76E-11,,
,2.837003,8.46E-11,,
,2.839003,8.06E-11,,
,2.841003,7.58E-11,,
,2.843003,7.12E-11,,
,2.845003,6.71E-11,,
,2.847003,6.33E-11,,
,2.849003,5.98E-11,,
,2.851003,5.60E-11,,
,2.853003,5.19E-11,,
,2.855003,4.70E-11,,
,2.857003,4.16E-11,,
,2.859003,3.60E-11,,
,2.861003,3.07E-11,,
,2.863003,2.56E-11,,
,2.865003,2.10E-11,,
,2.867003,1.66E-11,,
,2.869003,1.22E-11,,
,2.871003,7.38E-12,,
,2.873003,1.80E-12,,
,2.875003,-4.10E-12,,
,2.877003,-9.47E-12,,
,2.879003,-1.40E-11,,
,2.881003,-1.76E-11,,
,2.883003,-2.15E-11,,
,2.885003,-2.54E-11,,
,2.887003,-2.95E-11,,
,2.889003,-3.35E-11,,
,2.891003,-3.76E-11,,
,2.893003,-4.16E-11,,
,2.895003,-4.51E-11,,
,2.897003,-4.80E-11,,
,2.899003,-5.01E-11,,
,2.901003,-5.20E-11,,
,2.903003,-5.39E-11,,
,2.905003,-5.63E-11,,
,2.907003,-5.86E-11,,
,2.909003,-6.10E-11,,
,2.911003,-6.25E-11,,
,2.913003,-6.33E-11,,
,2.915003,-6.29E-11,,
,2.917003,-6.22E-11,,
,2.919003,-6.13E-11,,
,2.921003,-6.09E-11,,
,2.923003,-6.07E-11,,
,2.925003,-6.06E-11,,
,2.927003,-6.00E-11,,
,2.929003,-5.87E-11,,
,2.931003,-5.65E-11,,
,2.933003,-5.42E-11,,
,2.935003,-5.21E-11,,
,2.937003,-5.05E-11,,
,2.939003,-4.86E-11,,
,2.941003,-4.69E-11,,
,2.943003,-4.50E-11,,
,2.945003,-4.26E-11,,
,2.947003,-3.97E-11,,
,2.949003,-3.59E-11,,
,2.951003,-3.19E-11,,
,2.953003,-2.77E-11,,
,2.955003,-2.45E-11,,
,2.957003,-2.13E-11,,
,2.959003,-1.82E-11,,
,2.961003,-1.44E-11,,
,2.963003,-1.02E-11,,
,2.965003,-5.29E-12,,
,2.967003,1.89E-13,,
,2.969003,5.66E-12,,
,2.971003,1.07E-11,,
,2.973003,1.53E-11,,
,2.975003,1.99E-11,,
,2.977003,2.49E-11,,
,2.979003,3.04E-11,,
,2.981003,3.66E-11,,
,2.983003,4.31E-11,,
,2.985003,4.98E-11,,
,2.987003,5.57E-11,,
,2.989003,6.12E-11,,
,2.991003,6.64E-11,,
,2.993003,7.20E-11,,
,2.995003,7.79E-11,,
,2.997003,8.41E-11,,
,2.999003,9.08E-11,,
,3.001003,9.76E-11,,
,3.003003,1.04E-10,,
,3.005003,1.09E-10,,
,3.007003,1.14E-10,,
,3.009003,1.19E-10,,
,3.011003,1.25E-10,,
,3.013003,1.31E-10,,
,3.015003,1.37E-10,,
,3.017003,1.44E-10,,
,3.019003,1.50E-10,,
,3.021003,1.55E-10,,
,3.023003,1.60E-10,,
,3.025003,1.65E-10,,
,3.027003,1.70E-10,,
,3.029003,1.75E-10,,
,3.031003,1.81E-10,,
,3.033003,1.87E-10,,
,3.035003,1.93E-10,,
,3.037003,1.98E-10,,
,3.039003,2.03E-10,,
,3.041003,2.07E-10,,
,3.043003,2.12E-10,,
,3.045003,2.17E-10,,
,3.047003,2.22E-10,,
,3.049003,2.28E-10,,
,3.051003,2.33E-10,,
,3.053003,2.39E-10,,
,3.055003,2.44E-10,,
,3.057003,2.48E-10,,
,3.059003,2.52E-10,,
,3.061003,2.57E-10,,
,3.063003,2.61E-10,,
,3.065003,2.66E-10,,
,3.067003,2.72E-10,,
,3.069003,2.78E-10,,
,3.071003,2.83E-10,,
,3.073003,2.86E-10,,
,3.075003,2.90E-10,,
,3.077003,2.93E-10,,
,3.079003,2.98E-10,,
,3.081003,3.03E-10,,
,3.083003,3.08E-10,,
,3.085003,3.13E-10,,
,3.087003,3.17E-10,,
,3.089003,3.21E-10,,
,3.091003,3.23E-10,,
,3.093003,3.26E-10,,
,3.095003,3.30E-10,,
,3.097003,3.34E-10,,
,3.099003,3.38E-10,,
,3.101003,3.41E-10,,
,3.103003,3.45E-10,,
,3.105003,3.47E-10,,
,3.107003,3.49E-10,,
,3.109003,3.51E-10,,
,3.111003,3.53E-10,,
,3.113003,3.56E-10,,
,3.115003,3.58E-10,,
,3.117003,3.61E-10,,
,3.119003,3.63E-10,,
,3.121003,3.65E-10,,
,3.123003,3.66E-10,,
,3.125003,3.66E-10,,
,3.127003,3.67E-10,,
,3.129003,3.68E-10,,
,3.131003,3.69E-10,,
,3.133003,3.70E-10,,
,3.135003,3.71E-10,,
,3.137003,3.72E-10,,
,3.139003,3.72E-10,,
,3.141003,3.71E-10,,
,3.143003,3.71E-10,,
,3.145003,3.70E-10,,
,3.147003,3.70E-10,,
,3.149003,3.70E-10,,
,3.151003,3.70E-10,,
,3.153003,3.70E-10,,
,3.155003,3.69E-10,,
,3.157003,3.67E-10,,
,3.159003,3.66E-10,,
,3.161003,3.64E-10,,
,3.163003,3.63E-10,,
,3.165003,3.63E-10,,
,3.167003,3.63E-10,,
,3.169003,3.62E-10,,
,3.171003,3.60E-10,,
,3.173003,3.58E-10,,
,3.175003,3.55E-10,,
,3.177003,3.53E-10,,
,3.179003,3.51E-10,,
,3.181003,3.50E-10,,
,3.183003,3.49E-10,,
,3.185003,3.47E-10,,
,3.187003,3.46E-10,,
,3.189003,3.43E-10,,
,3.191003,3.40E-10,,
,3.193003,3.37E-10,,
,3.195003,3.34E-10,,
,3.197003,3.32E-10,,
,3.199003,3.31E-10,,
,3.201003,3.29E-10,,
,3.203003,3.27E-10,,
,3.205003,3.24E-10,,
,3.207003,3.20E-10,,
,3.209003,3.16E-10,,
,3.211003,3.13E-10,,
,3.213003,3.10E-10,,
,3.215003,3.08E-10,,
,3.217003,3.06E-10,,
,3.219003,3.04E-10,,
,3.221003,3.01E-10,,
,3.223003,2.97E-10,,
,3.225003,2.93E-10,,
,3.227003,2.89E-10,,
,3.229003,2.86E-10,,
,3.231003,2.84E-10,,
,3.233003,2.81E-10,,
,3.235003,2.79E-10,,
,3.237003,2.76E-10,,
,3.239003,2.72E-10,,
,3.241003,2.69E-10,,
,3.243003,2.65E-10,,
,3.245003,2.61E-10,,
,3.247003,2.59E-10,,
,3.249003,2.57E-10,,
,3.251003,2.55E-10,,
,3.253003,2.52E-10,,
,3.255003,2.49E-10,,
,3.257003,2.45E-10,,
,3.259003,2.42E-10,,
,3.261003,2.39E-10,,
,3.263003,2.36E-10,,
,3.265003,2.34E-10,,
,3.267003,2.32E-10,,
,3.269003,2.30E-10,,
,3.271003,2.28E-10,,
,3.273003,2.24E-10,,
,3.275003,2.21E-10,,
,3.277003,2.18E-10,,
,3.279003,2.16E-10,,
,3.281003,2.14E-10,,
,3.283003,2.13E-10,,
,3.285003,2.12E-10,,
,3.287003,2.10E-10,,
,3.289003,2.08E-10,,
,3.291003,2.05E-10,,
,3.293003,2.03E-10,,
,3.295003,2.01E-10,,
,3.297003,2.00E-10,,
,3.299003,1.99E-10,,
,3.301003,1.98E-10,,
,3.303003,1.97E-10,,
,3.305003,1.96E-10,,
,3.307003,1.94E-10,,
,3.309003,1.92E-10,,
,3.311003,1.91E-10,,
,3.313003,1.90E-10,,
,3.315003,1.89E-10,,
,3.317003,1.90E-10,,
,3.319003,1.90E-10,,
,3.321003,1.89E-10,,
,3.323003,1.87E-10,,
,3.325003,1.86E-10,,
,3.327003,1.85E-10,,
,3.329003,1.85E-10,,
,3.331003,1.85E-10,,
,3.333003,1.86E-10,,
,3.335003,1.86E-10,,
,3.337003,1.86E-10,,
,3.339003,1.85E-10,,
,3.341003,1.84E-10,,
,3.343003,1.84E-10,,
,3.345003,1.84E-10,,
,3.347003,1.85E-10,,
,3.349003,1.86E-10,,
,3.351003,1.87E-10,,
,3.353003,1.88E-10,,
,3.355003,1.88E-10,,
,3.357003,1.88E-10,,
,3.359003,1.87E-10,,
,3.361003,1.88E-10,,
,3.363003,1.88E-10,,
,3.365003,1.90E-10,,
,3.367003,1.91E-10,,
,3.369003,1.92E-10,,
,3.371003,1.93E-10,,
,3.373003,1.93E-10,,
,3.375003,1.93E-10,,
,3.377003,1.93E-10,,
,3.379003,1.94E-10,,
,3.381003,1.96E-10,,
,3.383003,1.97E-10,,
,3.385003,1.99E-10,,
,3.387003,2.00E-10,,
,3.389003,2.01E-10,,
,3.391003,2.01E-10,,
,3.393003,2.01E-10,,
,3.395003,2.02E-10,,
,3.397003,2.04E-10,,
,3.399003,2.06E-10,,
,3.401003,2.08E-10,,
,3.403003,2.09E-10,,
,3.405003,2.10E-10,,
,3.407003,2.11E-10,,
,3.409003,2.12E-10,,
,3.411003,2.13E-10,,
,3.413003,2.15E-10,,
,3.415003,2.17E-10,,
,3.417003,2.19E-10,,
,3.419003,2.21E-10,,
,3.421003,2.23E-10,,
,3.423003,2.25E-10,,
,3.425003,2.25E-10,,
,3.427003,2.26E-10,,
,3.429003,2.28E-10,,
,3.431003,2.30E-10,,
,3.433003,2.33E-10,,
,3.435003,2.36E-10,,
,3.437003,2.38E-10,,
,3.439003,2.39E-10,,
,3.441003,2.40E-10,,
,3.443003,2.42E-10,,
,3.445003,2.44E-10,,
,3.447003,2.46E-10,,
,3.449003,2.48E-10,,
,3.451003,2.51E-10,,
,3.453003,2.54E-10,,
,3.455003,2.55E-10,,
,3.457003,2.57E-10,,
,3.459003,2.58E-10,,
,3.461003,2.59E-10,,
,3.463003,2.61E-10,,
,3.465003,2.64E-10,,
,3.467003,2.67E-10,,
,3.469003,2.69E-10,,
,3.471003,2.71E-10,,
,3.473003,2.72E-10,,
,3.475003,2.74E-10,,
,3.477003,2.75E-10,,
,3.479003,2.77E-10,,
,3.481003,2.80E-10,,
,3.483003,2.82E-10,,
,3.485003,2.85E-10,,
,3.487003,2.87E-10,,
,3.489003,2.88E-10,,
,3.491003,2.89E-10,,
,3.493003,2.90E-10,,
,3.495003,2.92E-10,,
,3.497003,2.94E-10,,
,3.499003,2.97E-10,,
,3.501003,2.99E-10,,
,3.503003,3.01E-10,,
,3.505003,3.03E-10,,
,3.507003,3.04E-10,,
,3.509003,3.05E-10,,
,3.511003,3.06E-10,,
,3.513003,3.08E-10,,
,3.515003,3.11E-10,,
,3.517003,3.13E-10,,
,3.519003,3.16E-10,,
,3.521003,3.18E-10,,
,3.523003,3.19E-10,,
,3.525003,3.20E-10,,
,3.527003,3.21E-10,,
,3.529003,3.23E-10,,
,3.531003,3.26E-10,,
,3.533003,3.29E-10,,
,3.535003,3.32E-10,,
,3.537003,3.34E-10,,
,3.539003,3.35E-10,,
,3.541003,3.37E-10,,
,3.543003,3.38E-10,,
,3.545003,3.40E-10,,
,3.547003,3.43E-10,,
,3.549003,3.46E-10,,
,3.551003,3.49E-10,,
,3.553003,3.52E-10,,
,3.555003,3.54E-10,,
,3.557003,3.55E-10,,
,3.559003,3.56E-10,,
,3.561003,3.58E-10,,
,3.563003,3.60E-10,,
,3.565003,3.62E-10,,
,3.567003,3.64E-10,,
,3.569003,3.66E-10,,
,3.571003,3.68E-10,,
,3.573003,3.68E-10,,
,3.575003,3.68E-10,,
,3.577003,3.69E-10,,
,3.579003,3.70E-10,,
,3.581003,3.71E-10,,
,3.583003,3.73E-10,,
,3.585003,3.74E-10,,
,3.587003,3.74E-10,,
,3.589003,3.74E-10,,
,3.591003,3.72E-10,,
,3.593003,3.72E-10,,
,3.595003,3.72E-10,,
,3.597003,3.72E-10,,
,3.599003,3.72E-10,,
,3.601003,3.72E-10,,
,3.603003,3.71E-10,,
,3.605003,3.70E-10,,
,3.607003,3.68E-10,,
,3.609003,3.66E-10,,
,3.611003,3.64E-10,,
,3.613003,3.62E-10,,
,3.615003,3.61E-10,,
,3.617003,3.60E-10,,
,3.619003,3.58E-10,,
,3.621003,3.56E-10,,
,3.623003,3.53E-10,,
,3.625003,3.49E-10,,
,3.627003,3.46E-10,,
,3.629003,3.43E-10,,
,3.631003,3.40E-10,,
,3.633003,3.37E-10,,
,3.635003,3.34E-10,,
,3.637003,3.30E-10,,
,3.639003,3.25E-10,,
,3.641003,3.20E-10,,
,3.643003,3.14E-10,,
,3.645003,3.09E-10,,
,3.647003,3.04E-10,,
,3.649003,3.00E-10,,
,3.651003,2.94E-10,,
,3.653003,2.89E-10,,
,3.655003,2.82E-10,,
,3.657003,2.75E-10,,
,3.659003,2.68E-10,,
,3.661003,2.60E-10,,
,3.663003,2.53E-10,,
,3.665003,2.46E-10,,
,3.667003,2.39E-10,,
,3.669003,2.31E-10,,
,3.671003,2.23E-10,,
,3.673003,2.14E-10,,
,3.675003,2.05E-10,,
,3.677003,1.96E-10,,
,3.679003,1.87E-10,,
,3.681003,1.78E-10,,
,3.683003,1.70E-10,,
,3.685003,1.61E-10,,
,3.687003,1.52E-10,,
,3.689003,1.42E-10,,
,3.691003,1.32E-10,,
,3.693003,1.21E-10,,
,3.695003,1.12E-10,,
,3.697003,1.02E-10,,
,3.699003,9.36E-11,,
,3.701003,8.49E-11,,
,3.703003,7.59E-11,,
,3.705003,6.62E-11,,
,3.707003,5.58E-11,,
,3.709003,4.55E-11,,
,3.711003,3.57E-11,,
,3.713003,2.66E-11,,
,3.715003,1.80E-11,,
,3.717003,9.42E-12,,
,3.719003,7.26E-13,,
,3.721003,-8.72E-12,,
,3.723003,-1.86E-11,,
,3.725003,-2.87E-11,,
,3.727003,-3.84E-11,,
,3.729003,-4.76E-11,,
,3.731003,-5.60E-11,,
,3.733003,-6.42E-11,,
,3.735003,-7.24E-11,,
,3.737003,-8.13E-11,,
,3.739003,-9.08E-11,,
,3.741003,-1.01E-10,,
,3.743003,-1.10E-10,,
,3.745003,-1.19E-10,,
,3.747003,-1.27E-10,,
,3.749003,-1.35E-10,,
,3.751003,-1.43E-10,,
,3.753003,-1.51E-10,,
,3.755003,-1.60E-10,,
,3.757003,-1.68E-10,,
,3.759003,-1.77E-10,,
,3.761003,-1.86E-10,,
,3.763003,-1.93E-10,,
,3.765003,-2.00E-10,,
,3.767003,-2.07E-10,,
,3.769003,-2.14E-10,,
,3.771003,-2.21E-10,,
,3.773003,-2.28E-10,,
,3.775003,-2.36E-10,,
,3.777003,-2.43E-10,,
,3.779003,-2.50E-10,,
,3.781003,-2.55E-10,,
,3.783003,-2.61E-10,,
,3.785003,-2.66E-10,,
,3.787003,-2.71E-10,,
,3.789003,-2.77E-10,,
,3.791003,-2.83E-10,,
,3.793003,-2.89E-10,,
,3.795003,-2.93E-10,,
,3.797003,-2.98E-10,,
,3.799003,-3.01E-10,,
,3.801003,-3.05E-10,,
,3.803003,-3.09E-10,,
,3.805003,-3.13E-10,,
,3.807003,-3.17E-10,,
,3.809003,-3.21E-10,,
,3.811003,-3.25E-10,,
,3.813003,-3.27E-10,,
,3.815003,-3.29E-10,,
,3.817003,-3.31E-10,,
,3.819003,-3.32E-10,,
,3.821003,-3.35E-10,,
,3.823003,-3.37E-10,,
,3.825003,-3.39E-10,,
,3.827003,-3.41E-10,,
,3.829003,-3.42E-10,,
,3.831003,-3.43E-10,,
,3.833003,-3.43E-10,,
,3.835003,-3.43E-10,,
,3.837003,-3.43E-10,,
,3.839003,-3.43E-10,,
,3.841003,-3.44E-10,,
,3.843003,-3.44E-10,,
,3.845003,-3.43E-10,,
,3.847003,-3.42E-10,,
,3.849003,-3.41E-10,,
,3.851003,-3.39E-10,,
,3.853003,-3.38E-10,,
,3.855003,-3.37E-10,,
,3.857003,-3.36E-10,,
,3.859003,-3.35E-10,,
,3.861003,-3.33E-10,,
,3.863003,-3.31E-10,,
,3.865003,-3.28E-10,,
,3.867003,-3.24E-10,,
,3.869003,-3.21E-10,,
,3.871003,-3.19E-10,,
,3.873003,-3.16E-10,,
,3.875003,-3.14E-10,,
,3.877003,-3.11E-10,,
,3.879003,-3.08E-10,,
,3.881003,-3.04E-10,,
,3.883003,-2.99E-10,,
,3.885003,-2.95E-10,,
,3.887003,-2.91E-10,,
,3.889003,-2.87E-10,,
,3.891003,-2.83E-10,,
,3.893003,-2.80E-10,,
,3.895003,-2.75E-10,,
,3.897003,-2.70E-10,,
,3.899003,-2.64E-10,,
,3.901003,-2.59E-10,,
,3.903003,-2.54E-10,,
,3.905003,-2.49E-10,,
,3.907003,-2.44E-10,,
,3.909003,-2.40E-10,,
,3.911003,-2.35E-10,,
,3.913003,-2.31E-10,,
,3.915003,-2.25E-10,,
,3.917003,-2.19E-10,,
,3.919003,-2.14E-10,,
,3.921003,-2.09E-10,,
,3.923003,-2.04E-10,,
,3.925003,-2.00E-10,,
,3.927003,-1.96E-10,,
,3.929003,-1.91E-10,,
,3.931003,-1.86E-10,,
,3.933003,-1.81E-10,,
,3.935003,-1.75E-10,,
,3.937003,-1.71E-10,,
,3.939003,-1.67E-10,,
,3.941003,-1.64E-10,,
,3.943003,-1.61E-10,,
,3.945003,-1.57E-10,,
,3.947003,-1.52E-10,,
,3.949003,-1.48E-10,,
,3.951003,-1.43E-10,,
,3.953003,-1.39E-10,,
,3.955003,-1.35E-10,,
,3.957003,-1.32E-10,,
,3.959003,-1.29E-10,,
,3.961003,-1.26E-10,,
,3.963003,-1.21E-10,,
,3.965003,-1.17E-10,,
,3.967003,-1.12E-10,,
,3.969003,-1.07E-10,,
,3.971003,-1.03E-10,,
,3.973003,-1.00E-10,,
,3.975003,-9.66E-11,,
,3.977003,-9.28E-11,,
,3.979003,-8.84E-11,,
,3.981003,-8.34E-11,,
,3.983003,-7.84E-11,,
,3.985003,-7.33E-11,,
,3.987003,-6.87E-11,,
,3.989003,-6.45E-11,,
,3.991003,-6.05E-11,,
,3.993003,-5.65E-11,,
,3.995003,-5.19E-11,,
,3.997003,-4.67E-11,,
,3.999003,-4.14E-11,,
,4.001003,-3.60E-11,,
,4.003003,-3.11E-11,,
,4.005003,-2.64E-11,,
,4.007003,-2.26E-11,,
,4.009003,-1.87E-11,,
,4.011003,-1.46E-11,,
,4.013003,-9.58E-12,,
,4.015003,-4.53E-12,,
,4.017003,9.41E-13,,
,4.019003,5.88E-12,,
,4.021003,1.02E-11,,
,4.023003,1.39E-11,,
,4.025003,1.74E-11,,
,4.027003,2.11E-11,,
,4.029003,2.52E-11,,
,4.031003,2.96E-11,,
,4.033003,3.43E-11,,
,4.035003,3.86E-11,,
,4.037003,4.24E-11,,
,4.039003,4.56E-11,,
,4.041003,4.82E-11,,
,4.043003,5.08E-11,,
,4.045003,5.35E-11,,
,4.047003,5.71E-11,,
,4.049003,6.07E-11,,
,4.051003,6.41E-11,,
,4.053003,6.70E-11,,
,4.055003,6.91E-11,,
,4.057003,7.12E-11,,
,4.059003,7.24E-11,,
,4.061003,7.42E-11,,
,4.063003,7.60E-11,,
,4.065003,7.85E-11,,
,4.067003,8.08E-11,,
,4.069003,8.29E-11,,
,4.071003,8.41E-11,,
,4.073003,8.48E-11,,
,4.075003,8.50E-11,,
,4.077003,8.54E-11,,
,4.079003,8.63E-11,,
,4.081003,8.76E-11,,
,4.083003,8.88E-11,,
,4.085003,8.97E-11,,
,4.087003,9.02E-11,,
,4.089003,8.98E-11,,
,4.091003,8.92E-11,,
,4.093003,8.83E-11,,
,4.095003,8.79E-11,,
,4.097003,8.78E-11,,
,4.099003,8.82E-11,,
,4.101003,8.83E-11,,
,4.103003,8.80E-11,,
,4.105003,8.67E-11,,
,4.107003,8.50E-11,,
,4.109003,8.32E-11,,
,4.111003,8.16E-11,,
,4.113003,8.05E-11,,
,4.115003,7.97E-11,,
,4.117003,7.90E-11,,
,4.119003,7.79E-11,,
,4.121003,7.63E-11,,
,4.123003,7.42E-11,,
,4.125003,7.19E-11,,
,4.127003,6.95E-11,,
,4.129003,6.76E-11,,
,4.131003,6.60E-11,,
,4.133003,6.45E-11,,
,4.135003,6.28E-11,,
,4.137003,6.04E-11,,
,4.139003,5.75E-11,,
,4.141003,5.44E-11,,
,4.143003,5.15E-11,,
,4.145003,4.91E-11,,
,4.147003,4.71E-11,,
,4.149003,4.54E-11,,
,4.151003,4.33E-11,,
,4.153003,4.11E-11,,
,4.155003,3.82E-11,,
,4.157003,3.50E-11,,
,4.159003,3.15E-11,,
,4.161003,2.87E-11,,
,4.163003,2.63E-11,,
,4.165003,2.43E-11,,
,4.167003,2.23E-11,,
,4.169003,2.03E-11,,
,4.171003,1.77E-11,,
,4.173003,1.47E-11,,
,4.175003,1.15E-11,,
,4.177003,8.56E-12,,
,4.179003,6.20E-12,,
,4.181003,4.38E-12,,
,4.183003,2.98E-12,,
,4.185003,1.37E-12,,
,4.187003,-7.77E-13,,
,4.189003,-3.46E-12,,
,4.191003,-6.57E-12,,
,4.193003,-9.15E-12,,
,4.195003,-1.13E-11,,
,4.197003,-1.26E-11,,
,4.199003,-1.36E-11,,
,4.201003,-1.45E-11,,
,4.203003,-1.60E-11,,
,4.205003,-1.80E-11,,
,4.207003,-2.03E-11,,
,4.209003,-2.24E-11,,
,4.211003,-2.41E-11,,
,4.213003,-2.51E-11,,
,4.215003,-2.58E-11,,
,4.217003,-2.63E-11,,
,4.219003,-2.71E-11,,
,4.221003,-2.80E-11,,
,4.223003,-2.97E-11,,
,4.225003,-3.12E-11,,
,4.227003,-3.26E-11,,
,4.229003,-3.31E-11,,
,4.231003,-3.35E-11,,
,4.233003,-3.35E-11,,
,4.235003,-3.36E-11,,
,4.237003,-3.38E-11,,
,4.239003,-3.48E-11,,
,4.241003,-3.58E-11,,
,4.243003,-3.67E-11,,
,4.245003,-3.70E-11,,
,4.247003,-3.70E-11,,
,4.249003,-3.65E-11,,
,4.251003,-3.61E-11,,
,4.253003,-3.58E-11,,
,4.255003,-3.59E-11,,
,4.257003,-3.66E-11,,
,4.259003,-3.75E-11,,
,4.261003,-3.78E-11,,
,4.263003,-3.75E-11,,
,4.265003,-3.68E-11,,
,4.267003,-3.61E-11,,
,4.269003,-3.56E-11,,
,4.271003,-3.55E-11,,
,4.273003,-3.61E-11,,
,4.275003,-3.68E-11,,
,4.277003,-3.71E-11,,
,4.279003,-3.67E-11,,
,4.281003,-3.58E-11,,
,4.283003,-3.48E-11,,
,4.285003,-3.37E-11,,
,4.287003,-3.32E-11,,
,4.289003,-3.33E-11,,
,4.291003,-3.36E-11,,
,4.293003,-3.37E-11,,
,4.295003,-3.34E-11,,
,4.297003,-3.24E-11,,
,4.299003,-3.13E-11,,
,4.301003,-2.99E-11,,
,4.303003,-2.89E-11,,
,4.305003,-2.84E-11,,
,4.307003,-2.82E-11,,
,4.309003,-2.80E-11,,
,4.311003,-2.73E-11,,
,4.313003,-2.60E-11,,
,4.315003,-2.39E-11,,
,4.317003,-2.17E-11,,
,4.319003,-1.97E-11,,
,4.321003,-1.84E-11,,
,4.323003,-1.75E-11,,
,4.325003,-1.67E-11,,
,4.327003,-1.56E-11,,
,4.329003,-1.36E-11,,
,4.331003,-1.12E-11,,
,4.333003,-8.29E-12,,
,4.335003,-6.04E-12,,
,4.337003,-4.21E-12,,
,4.339003,-2.82E-12,,
,4.341003,-1.42E-12,,
,4.343003,2.97E-13,,
,4.345003,2.12E-12,,
,4.347003,4.59E-12,,
,4.349003,7.60E-12,,
,4.351003,1.07E-11,,
,4.353003,1.32E-11,,
,4.355003,1.51E-11,,
,4.357003,1.66E-11,,
,4.359003,1.83E-11,,
,4.361003,2.02E-11,,
,4.363003,2.26E-11,,
,4.365003,2.53E-11,,
,4.367003,2.80E-11,,
,4.369003,3.01E-11,,
,4.371003,3.18E-11,,
,4.373003,3.29E-11,,
,4.375003,3.39E-11,,
,4.377003,3.50E-11,,
,4.379003,3.66E-11,,
,4.381003,3.85E-11,,
,4.383003,4.07E-11,,
,4.385003,4.26E-11,,
,4.387003,4.41E-11,,
,4.389003,4.47E-11,,
,4.391003,4.50E-11,,
,4.393003,4.55E-11,,
,4.395003,4.64E-11,,
,4.397003,4.73E-11,,
,4.399003,4.84E-11,,
,4.401003,4.93E-11,,
,4.403003,4.99E-11,,
,4.405003,4.99E-11,,
,4.407003,4.93E-11,,
,4.409003,4.85E-11,,
,4.411003,4.75E-11,,
,4.413003,4.75E-11,,
,4.415003,4.77E-11,,
,4.417003,4.79E-11,,
,4.419003,4.74E-11,,
,4.421003,4.61E-11,,
,4.423003,4.46E-11,,
,4.425003,4.26E-11,,
,4.427003,4.04E-11,,
,4.429003,3.85E-11,,
,4.431003,3.69E-11,,
,4.433003,3.57E-11,,
,4.435003,3.42E-11,,
,4.437003,3.22E-11,,
,4.439003,2.93E-11,,
,4.441003,2.60E-11,,
,4.443003,2.25E-11,,
,4.445003,1.94E-11,,
,4.447003,1.66E-11,,
,4.449003,1.45E-11,,
,4.451003,1.20E-11,,
,4.453003,9.21E-12,,
,4.455003,5.34E-12,,
,4.457003,1.26E-12,,
,4.459003,-3.03E-12,,
,4.461003,-7.00E-12,,
,4.463003,-1.08E-11,,
,4.465003,-1.42E-11,,
,4.467003,-1.75E-11,,
,4.469003,-2.11E-11,,
,4.471003,-2.50E-11,,
,4.473003,-2.99E-11,,
,4.475003,-3.48E-11,,
,4.477003,-4.00E-11,,
,4.479003,-4.43E-11,,
,4.481003,-4.83E-11,,
,4.483003,-5.17E-11,,
,4.485003,-5.56E-11,,
,4.487003,-6.00E-11,,
,4.489003,-6.54E-11,,
,4.491003,-7.05E-11,,
,4.493003,-7.58E-11,,
,4.495003,-8.03E-11,,
,4.497003,-8.47E-11,,
,4.499003,-8.83E-11,,
,4.501003,-9.24E-11,,
,4.503003,-9.68E-11,,
,4.505003,-1.02E-10,,
,4.507003,-1.07E-10,,
,4.509003,-1.13E-10,,
,4.511003,-1.17E-10,,
,4.513003,-1.21E-10,,
,4.515003,-1.25E-10,,
,4.517003,-1.28E-10,,
,4.519003,-1.32E-10,,
,4.521003,-1.36E-10,,
,4.523003,-1.41E-10,,
,4.525003,-1.46E-10,,
,4.527003,-1.51E-10,,
,4.529003,-1.55E-10,,
,4.531003,-1.58E-10,,
,4.533003,-1.61E-10,,
,4.535003,-1.64E-10,,
,4.537003,-1.68E-10,,
,4.539003,-1.72E-10,,
,4.541003,-1.76E-10,,
,4.543003,-1.80E-10,,
,4.545003,-1.84E-10,,
,4.547003,-1.87E-10,,
,4.549003,-1.89E-10,,
,4.551003,-1.91E-10,,
,4.553003,-1.94E-10,,
,4.555003,-1.97E-10,,
,4.557003,-2.01E-10,,
,4.559003,-2.04E-10,,
,4.561003,-2.07E-10,,
,4.563003,-2.09E-10,,
,4.565003,-2.11E-10,,
,4.567003,-2.13E-10,,
,4.569003,-2.15E-10,,
,4.571003,-2.17E-10,,
,4.573003,-2.20E-10,,
,4.575003,-2.22E-10,,
,4.577003,-2.25E-10,,
,4.579003,-2.27E-10,,
,4.581003,-2.28E-10,,
,4.583003,-2.29E-10,,
,4.585003,-2.30E-10,,
,4.587003,-2.31E-10,,
,4.589003,-2.33E-10,,
,4.591003,-2.35E-10,,
,4.593003,-2.37E-10,,
,4.595003,-2.38E-10,,
,4.597003,-2.38E-10,,
,4.599003,-2.39E-10,,
,4.601003,-2.39E-10,,
,4.603003,-2.39E-10,,
,4.605003,-2.40E-10,,
,4.607003,-2.42E-10,,
,4.609003,-2.43E-10,,
,4.611003,-2.43E-10,,
,4.613003,-2.43E-10,,
,4.615003,-2.43E-10,,
,4.617003,-2.42E-10,,
,4.619003,-2.42E-10,,
,4.621003,-2.42E-10,,
,4.623003,-2.42E-10,,
,4.625003,-2.43E-10,,
,4.627003,-2.43E-10,,
,4.629003,-2.43E-10,,
,4.631003,-2.42E-10,,
,4.633003,-2.41E-10,,
,4.635003,-2.40E-10,,
,4.637003,-2.39E-10,,
,4.639003,-2.39E-10,,
,4.641003,-2.39E-10,,
,4.643003,-2.39E-10,,
,4.645003,-2.38E-10,,
,4.647003,-2.37E-10,,
,4.649003,-2.35E-10,,
,4.651003,-2.33E-10,,
,4.653003,-2.31E-10,,
,4.655003,-2.30E-10,,
,4.657003,-2.29E-10,,
,4.659003,-2.28E-10,,
,4.661003,-2.27E-10,,
,4.663003,-2.25E-10,,
,4.665003,-2.23E-10,,
,4.667003,-2.21E-10,,
,4.669003,-2.18E-10,,
,4.671003,-2.16E-10,,
,4.673003,-2.15E-10,,
,4.675003,-2.13E-10,,
,4.677003,-2.12E-10,,
,4.679003,-2.10E-10,,
,4.681003,-2.07E-10,,
,4.683003,-2.04E-10,,
,4.685003,-2.01E-10,,
,4.687003,-1.99E-10,,
,4.689003,-1.97E-10,,
,4.691003,-1.95E-10,,
,4.693003,-1.93E-10,,
,4.695003,-1.91E-10,,
,4.697003,-1.88E-10,,
,4.699003,-1.84E-10,,
,4.701003,-1.81E-10,,
,4.703003,-1.78E-10,,
,4.705003,-1.75E-10,,
,4.707003,-1.74E-10,,
,4.709003,-1.72E-10,,
,4.711003,-1.69E-10,,
,4.713003,-1.66E-10,,
,4.715003,-1.63E-10,,
,4.717003,-1.59E-10,,
,4.719003,-1.55E-10,,
,4.721003,-1.52E-10,,
,4.723003,-1.50E-10,,
,4.725003,-1.48E-10,,
,4.727003,-1.46E-10,,
,4.729003,-1.43E-10,,
,4.731003,-1.39E-10,,
,4.733003,-1.36E-10,,
,4.735003,-1.32E-10,,
,4.737003,-1.30E-10,,
,4.739003,-1.28E-10,,
,4.741003,-1.26E-10,,
,4.743003,-1.23E-10,,
,4.745003,-1.21E-10,,
,4.747003,-1.18E-10,,
,4.749003,-1.14E-10,,
,4.751003,-1.11E-10,,
,4.753003,-1.09E-10,,
,4.755003,-1.06E-10,,
,4.757003,-1.04E-10,,
,4.759003,-1.02E-10,,
,4.761003,-1.00E-10,,
,4.763003,-9.73E-11,,
,4.765003,-9.44E-11,,
,4.767003,-9.15E-11,,
,4.769003,-8.90E-11,,
,4.771003,-8.71E-11,,
,4.773003,-8.54E-11,,
,4.775003,-8.40E-11,,
,4.777003,-8.23E-11,,
,4.779003,-8.02E-11,,
,4.781003,-7.75E-11,,
,4.783003,-7.49E-11,,
,4.785003,-7.25E-11,,
,4.787003,-7.07E-11,,
,4.789003,-6.94E-11,,
,4.791003,-6.83E-11,,
,4.793003,-6.72E-11,,
,4.795003,-6.57E-11,,
,4.797003,-6.39E-11,,
,4.799003,-6.19E-11,,
,4.801003,-5.98E-11,,
,4.803003,-5.81E-11,,
,4.805003,-5.70E-11,,
,4.807003,-5.66E-11,,
,4.809003,-5.64E-11,,
,4.811003,-5.57E-11,,
,4.813003,-5.43E-11,,
,4.815003,-5.23E-11,,
,4.817003,-5.03E-11,,
,4.819003,-4.88E-11,,
,4.821003,-4.80E-11,,
,4.823003,-4.78E-11,,
,4.825003,-4.78E-11,,
,4.827003,-4.74E-11,,
,4.829003,-4.65E-11,,
,4.831003,-4.50E-11,,
,4.833003,-4.35E-11,,
,4.835003,-4.22E-11,,
,4.837003,-4.16E-11,,
,4.839003,-4.14E-11,,
,4.841003,-4.13E-11,,
,4.843003,-4.10E-11,,
,4.845003,-4.05E-11,,
,4.847003,-3.96E-11,,
,4.849003,-3.82E-11,,
,4.851003,-3.68E-11,,
,4.853003,-3.59E-11,,
,4.855003,-3.56E-11,,
,4.857003,-3.57E-11,,
,4.859003,-3.56E-11,,
,4.861003,-3.52E-11,,
,4.863003,-3.45E-11,,
,4.865003,-3.34E-11,,
,4.867003,-3.21E-11,,
,4.869003,-3.09E-11,,
,4.871003,-3.05E-11,,
,4.873003,-3.06E-11,,
,4.875003,-3.08E-11,,
,4.877003,-3.06E-11,,
,4.879003,-3.00E-11,,
,4.881003,-2.91E-11,,
,4.883003,-2.82E-11,,
,4.885003,-2.70E-11,,
,4.887003,-2.65E-11,,
,4.889003,-2.66E-11,,
,4.891003,-2.73E-11,,
,4.893003,-2.76E-11,,
,4.895003,-2.72E-11,,
,4.897003,-2.64E-11,,
,4.899003,-2.50E-11,,
,4.901003,-2.41E-11,,
,4.903003,-2.35E-11,,
,4.905003,-2.39E-11,,
,4.907003,-2.44E-11,,
,4.909003,-2.50E-11,,
,4.911003,-2.50E-11,,
,4.913003,-2.46E-11,,
,4.915003,-2.39E-11,,
,4.917003,-2.32E-11,,
,4.919003,-2.28E-11,,
,4.921003,-2.28E-11,,
,4.923003,-2.32E-11,,
,4.925003,-2.40E-11,,
,4.927003,-2.43E-11,,
,4.929003,-2.41E-11,,
,4.931003,-2.34E-11,,
,4.933003,-2.28E-11,,
,4.935003,-2.25E-11,,
,4.937003,-2.22E-11,,
,4.939003,-2.28E-11,,
,4.941003,-2.35E-11,,
,4.943003,-2.44E-11,,
,4.945003,-2.45E-11,,
,4.947003,-2.42E-11,,
,4.949003,-2.35E-11,,
,4.951003,-2.29E-11,,
,4.953003,-2.28E-11,,
,4.955003,-2.34E-11,,
,4.957003,-2.45E-11,,
,4.959003,-2.55E-11,,
,4.961003,-2.57E-11,,
,4.963003,-2.55E-11,,
,4.965003,-2.49E-11,,
,4.967003,-2.45E-11,,
,4.969003,-2.45E-11,,
,4.971003,-2.47E-11,,
,4.973003,-2.57E-11,,
,4.975003,-2.68E-11,,
,4.977003,-2.76E-11,,
,4.979003,-2.78E-11,,
,4.981003,-2.72E-11,,
,4.983003,-2.66E-11,,
,4.985003,-2.62E-11,,
,4.987003,-2.62E-11,,
,4.989003,-2.68E-11,,
,4.991003,-2.74E-11,,
,4.993003,-2.84E-11,,
,4.995003,-2.86E-11,,
,4.997003,-2.84E-11,,
,4.999003,-2.76E-11,,
,5.001003,-2.69E-11,,
,5.003003,-2.68E-11,,
,5.005003,-2.73E-11,,
,5.007003,-2.83E-11,,
,5.009003,-2.90E-11,,
,5.011003,-2.94E-11,,
,5.013003,-2.92E-11,,
,5.015003,-2.87E-11,,
,5.017003,-2.80E-11,,
,5.019003,-2.78E-11,,
,5.021003,-2.82E-11,,
,5.023003,-2.87E-11,,
,5.025003,-2.94E-11,,
,5.027003,-3.00E-11,,
,5.029003,-3.01E-11,,
,5.031003,-2.94E-11,,
,5.033003,-2.85E-11,,
,5.035003,-2.76E-11,,
,5.037003,-2.75E-11,,
,5.039003,-2.79E-11,,
,5.041003,-2.88E-11,,
,5.043003,-2.95E-11,,
,5.045003,-2.97E-11,,
,5.047003,-2.91E-11,,
,5.049003,-2.83E-11,,
,5.051003,-2.74E-11,,
,5.053003,-2.69E-11,,
,5.055003,-2.69E-11,,
,5.057003,-2.75E-11,,
,5.059003,-2.83E-11,,
,5.061003,-2.83E-11,,
,5.063003,-2.77E-11,,
,5.065003,-2.68E-11,,
,5.067003,-2.59E-11,,
,5.069003,-2.53E-11,,
,5.071003,-2.53E-11,,
,5.073003,-2.57E-11,,
,5.075003,-2.65E-11,,
,5.077003,-2.68E-11,,
,5.079003,-2.66E-11,,
,5.081003,-2.57E-11,,
,5.083003,-2.46E-11,,
,5.085003,-2.36E-11,,
,5.087003,-2.31E-11,,
,5.089003,-2.33E-11,,
,5.091003,-2.40E-11,,
,5.093003,-2.44E-11,,
,5.095003,-2.42E-11,,
,5.097003,-2.35E-11,,
,5.099003,-2.25E-11,,
,5.101003,-2.17E-11,,
,5.103003,-2.11E-11,,
,5.105003,-2.12E-11,,
,5.107003,-2.17E-11,,
,5.109003,-2.22E-11,,
,5.111003,-2.24E-11,,
,5.113003,-2.18E-11,,
,5.115003,-2.07E-11,,
,5.117003,-2.00E-11,,
,5.119003,-1.93E-11,,
,5.121003,-1.96E-11,,
,5.123003,-1.98E-11,,
,5.125003,-2.04E-11,,
,5.127003,-2.05E-11,,
,5.129003,-2.04E-11,,
,5.131003,-1.95E-11,,
,5.133003,-1.85E-11,,
,5.135003,-1.78E-11,,
,5.137003,-1.82E-11,,
,5.139003,-1.88E-11,,
,5.141003,-1.96E-11,,
,5.143003,-1.98E-11,,
,5.145003,-1.96E-11,,
,5.147003,-1.90E-11,,
,5.149003,-1.82E-11,,
,5.151003,-1.74E-11,,
,5.153003,-1.71E-11,,
,5.155003,-1.73E-11,,
,5.157003,-1.81E-11,,
,5.159003,-1.85E-11,,
,5.161003,-1.89E-11,,
,5.163003,-1.84E-11,,
,5.165003,-1.76E-11,,
,5.167003,-1.63E-11,,
,5.169003,-1.59E-11,,
,5.171003,-1.60E-11,,
,5.173003,-1.70E-11,,
,5.175003,-1.76E-11,,
,5.177003,-1.81E-11,,
,5.179003,-1.76E-11,,
,5.181003,-1.74E-11,,
,5.183003,-1.66E-11,,
,5.185003,-1.61E-11,,
,5.187003,-1.57E-11,,
,5.189003,-1.60E-11,,
,5.191003,-1.67E-11,,
,5.193003,-1.72E-11,,
,5.195003,-1.73E-11,,
,5.197003,-1.70E-11,,
,5.199003,-1.60E-11,,
,5.201003,-1.53E-11,,
,5.203003,-1.48E-11,,
,5.205003,-1.53E-11,,
,5.207003,-1.63E-11,,
,5.209003,-1.73E-11,,
,5.211003,-1.78E-11,,
,5.213003,-1.75E-11,,
,5.215003,-1.69E-11,,
,5.217003,-1.61E-11,,
,5.219003,-1.57E-11,,
,5.221003,-1.57E-11,,
,5.223003,-1.62E-11,,
,5.225003,-1.68E-11,,
,5.227003,-1.71E-11,,
,5.229003,-1.69E-11,,
,5.231003,-1.62E-11,,
,5.233003,-1.55E-11,,
,5.235003,-1.48E-11,,
,5.237003,-1.46E-11,,
,5.239003,-1.49E-11,,
,5.241003,-1.57E-11,,
,5.243003,-1.63E-11,,
,5.245003,-1.65E-11,,
,5.247003,-1.59E-11,,
,5.249003,-1.49E-11,,
,5.251003,-1.39E-11,,
,5.253003,-1.31E-11,,
,5.255003,-1.34E-11,,
,5.257003,-1.39E-11,,
,5.259003,-1.45E-11,,
,5.261003,-1.43E-11,,
,5.263003,-1.39E-11,,
,5.265003,-1.29E-11,,
,5.267003,-1.16E-11,,
,5.269003,-1.09E-11,,
,5.271003,-1.05E-11,,
,5.273003,-1.10E-11,,
,5.275003,-1.12E-11,,
,5.277003,-1.12E-11,,
,5.279003,-1.08E-11,,
,5.281003,-9.58E-12,,
,5.283003,-8.18E-12,,
,5.285003,-6.90E-12,,
,5.287003,-6.36E-12,,
,5.289003,-6.36E-12,,
,5.291003,-6.36E-12,,
,5.293003,-6.14E-12,,
,5.295003,-5.61E-12,,
,5.297003,-4.53E-12,,
,5.299003,-3.14E-12,,
,5.301003,-1.53E-12,,
,5.303003,-3.47E-13,,
,5.305003,1.89E-13,,
,5.307003,1.89E-13,,
,5.309003,2.97E-13,,
,5.311003,9.41E-13,,
,5.313003,2.12E-12,,
,5.315003,3.62E-12,,
,5.317003,5.13E-12,,
,5.319003,6.52E-12,,
,5.321003,7.27E-12,,
,5.323003,7.70E-12,,
,5.325003,7.81E-12,,
,5.327003,8.35E-12,,
,5.329003,9.21E-12,,
,5.331003,1.07E-11,,
,5.333003,1.22E-11,,
,5.335003,1.36E-11,,
,5.337003,1.45E-11,,
,5.339003,1.50E-11,,
,5.341003,1.52E-11,,
,5.343003,1.54E-11,,
,5.345003,1.60E-11,,
,5.347003,1.73E-11,,
,5.349003,1.90E-11,,
,5.351003,2.07E-11,,
,5.353003,2.19E-11,,
,5.355003,2.26E-11,,
,5.357003,2.28E-11,,
,5.359003,2.29E-11,,
,5.361003,2.34E-11,,
,5.363003,2.45E-11,,
,5.365003,2.60E-11,,
,5.367003,2.75E-11,,
,5.369003,2.89E-11,,
,5.371003,2.97E-11,,
,5.373003,3.01E-11,,
,5.375003,3.00E-11,,
,5.377003,3.02E-11,,
,5.379003,3.10E-11,,
,5.381003,3.24E-11,,
,5.383003,3.42E-11,,
,5.385003,3.56E-11,,
,5.387003,3.65E-11,,
,5.389003,3.68E-11,,
,5.391003,3.68E-11,,
,5.393003,3.71E-11,,
,5.395003,3.75E-11,,
,5.397003,3.91E-11,,
,5.399003,4.09E-11,,
,5.401003,4.24E-11,,
,5.403003,4.33E-11,,
,5.405003,4.35E-11,,
,5.407003,4.35E-11,,
,5.409003,4.33E-11,,
,5.411003,4.38E-11,,
,5.413003,4.46E-11,,
,5.415003,4.61E-11,,
,5.417003,4.76E-11,,
,5.419003,4.90E-11,,
,5.421003,4.96E-11,,
,5.423003,4.98E-11,,
,5.425003,4.98E-11,,
,5.427003,4.98E-11,,
,5.429003,5.05E-11,,
,5.431003,5.16E-11,,
,5.433003,5.31E-11,,
,5.435003,5.42E-11,,
,5.437003,5.49E-11,,
,5.439003,5.49E-11,,
,5.441003,5.48E-11,,
,5.443003,5.47E-11,,
,5.445003,5.55E-11,,
,5.447003,5.66E-11,,
,5.449003,5.79E-11,,
,5.451003,5.92E-11,,
,5.453003,6.00E-11,,
,5.455003,6.04E-11,,
,5.457003,6.03E-11,,
,5.459003,6.04E-11,,
,5.461003,6.06E-11,,
,5.463003,6.15E-11,,
,5.465003,6.27E-11,,
,5.467003,6.39E-11,,
,5.469003,6.46E-11,,
,5.471003,6.47E-11,,
,5.473003,6.47E-11,,
,5.475003,6.43E-11,,
,5.477003,6.43E-11,,
,5.479003,6.45E-11,,
,5.481003,6.55E-11,,
,5.483003,6.63E-11,,
,5.485003,6.70E-11,,
,5.487003,6.73E-11,,
,5.489003,6.69E-11,,
,5.491003,6.65E-11,,
,5.493003,6.61E-11,,
,5.495003,6.63E-11,,
,5.497003,6.68E-11,,
,5.499003,6.74E-11,,
,5.501003,6.80E-11,,
,5.503003,6.83E-11,,
,5.505003,6.78E-11,,
,5.507003,6.71E-11,,
,5.509003,6.63E-11,,
,5.511003,6.60E-11,,
,5.513003,6.62E-11,,
,5.515003,6.68E-11,,
,5.517003,6.74E-11,,
,5.519003,6.77E-11,,
,5.521003,6.73E-11,,
,5.523003,6.63E-11,,
,5.525003,6.55E-11,,
,5.527003,6.47E-11,,
,5.529003,6.46E-11,,
,5.531003,6.47E-11,,
,5.533003,6.54E-11,,
,5.535003,6.55E-11,,
,5.537003,6.51E-11,,
,5.539003,6.42E-11,,
,5.541003,6.31E-11,,
,5.543003,6.20E-11,,
,5.545003,6.16E-11,,
,5.547003,6.18E-11,,
,5.549003,6.22E-11,,
,5.551003,6.23E-11,,
,5.553003,6.21E-11,,
,5.555003,6.15E-11,,
,5.557003,6.04E-11,,
,5.559003,5.93E-11,,
,5.561003,5.84E-11,,
,5.563003,5.82E-11,,
,5.565003,5.82E-11,,
,5.567003,5.86E-11,,
,5.569003,5.86E-11,,
,5.571003,5.79E-11,,
,5.573003,5.68E-11,,
,5.575003,5.54E-11,,
,5.577003,5.45E-11,,
,5.579003,5.39E-11,,
,5.581003,5.41E-11,,
,5.583003,5.42E-11,,
,5.585003,5.43E-11,,
,5.587003,5.38E-11,,
,5.589003,5.30E-11,,
,5.591003,5.18E-11,,
,5.593003,5.04E-11,,
,5.595003,4.97E-11,,
,5.597003,4.99E-11,,
,5.599003,5.08E-11,,
,5.601003,5.11E-11,,
,5.603003,5.08E-11,,
,5.605003,4.99E-11,,
,5.607003,4.88E-11,,
,5.609003,4.77E-11,,
,5.611003,4.68E-11,,
,5.613003,4.66E-11,,
,5.615003,4.67E-11,,
,5.617003,4.71E-11,,
,5.619003,4.71E-11,,
,5.621003,4.64E-11,,
,5.623003,4.54E-11,,
,5.625003,4.43E-11,,
,5.627003,4.37E-11,,
,5.629003,4.36E-11,,
,5.631003,4.36E-11,,
,5.633003,4.42E-11,,
,5.635003,4.43E-11,,
,5.637003,4.40E-11,,
,5.639003,4.29E-11,,
,5.641003,4.16E-11,,
,5.643003,4.09E-11,,
,5.645003,4.02E-11,,
,5.647003,4.04E-11,,
,5.649003,4.07E-11,,
,5.651003,4.11E-11,,
,5.653003,4.10E-11,,
,5.655003,4.06E-11,,
,5.657003,3.97E-11,,
,5.659003,3.89E-11,,
,5.661003,3.83E-11,,
,5.663003,3.82E-11,,
,5.665003,3.83E-11,,
,5.667003,3.88E-11,,
,5.669003,3.89E-11,,
,5.671003,3.86E-11,,
,5.673003,3.78E-11,,
,5.675003,3.69E-11,,
,5.677003,3.62E-11,,
,5.679003,3.59E-11,,
,5.681003,3.64E-11,,
,5.683003,3.70E-11,,
,5.685003,3.75E-11,,
,5.687003,3.74E-11,,
,5.689003,3.68E-11,,
,5.691003,3.57E-11,,
,5.693003,3.49E-11,,
,5.695003,3.48E-11,,
,5.697003,3.52E-11,,
,5.699003,3.58E-11,,
,5.701003,3.64E-11,,
,5.703003,3.65E-11,,
,5.705003,3.62E-11,,
,5.707003,3.53E-11,,
,5.709003,3.47E-11,,
,5.711003,3.43E-11,,
,5.713003,3.43E-11,,
,5.715003,3.47E-11,,
,5.717003,3.53E-11,,
,5.719003,3.57E-11,,
,5.721003,3.54E-11,,
,5.723003,3.45E-11,,
,5.725003,3.38E-11,,
,5.727003,3.35E-11,,
,5.729003,3.36E-11,,
,5.731003,3.39E-11,,
,5.733003,3.44E-11,,
,5.735003,3.50E-11,,
,5.737003,3.49E-11,,
,5.739003,3.43E-11,,
,5.741003,3.33E-11,,
,5.743003,3.25E-11,,
,5.745003,3.22E-11,,
,5.747003,3.24E-11,,
,5.749003,3.31E-11,,
,5.751003,3.37E-11,,
,5.753003,3.39E-11,,
,5.755003,3.35E-11,,
,5.757003,3.26E-11,,
,5.759003,3.18E-11,,
,5.761003,3.13E-11,,
,5.763003,3.15E-11,,
,5.765003,3.21E-11,,
,5.767003,3.25E-11,,
,5.769003,3.26E-11,,
,5.771003,3.22E-11,,
,5.773003,3.13E-11,,
,5.775003,3.04E-11,,
,5.777003,2.97E-11,,
,5.779003,2.96E-11,,
,5.781003,2.99E-11,,
,5.783003,3.06E-11,,
,5.785003,3.09E-11,,
,5.787003,3.10E-11,,
,5.789003,3.01E-11,,
,5.791003,2.93E-11,,
,5.793003,2.84E-11,,
,5.795003,2.83E-11,,
,5.797003,2.84E-11,,
,5.799003,2.89E-11,,
,5.801003,2.92E-11,,
,5.803003,2.93E-11,,
,5.805003,2.86E-11,,
,5.807003,2.76E-11,,
,5.809003,2.66E-11,,
,5.811003,2.60E-11,,
,5.813003,2.60E-11,,
,5.815003,2.63E-11,,
,5.817003,2.67E-11,,
,5.819003,2.66E-11,,
,5.821003,2.60E-11,,
,5.823003,2.50E-11,,
,5.825003,2.41E-11,,
,5.827003,2.36E-11,,
,5.829003,2.32E-11,,
,5.831003,2.33E-11,,
,5.833003,2.35E-11,,
,5.835003,2.37E-11,,
,5.837003,2.33E-11,,
,5.839003,2.22E-11,,
,5.841003,2.12E-11,,
,5.843003,2.04E-11,,
,5.845003,1.99E-11,,
,5.847003,1.96E-11,,
,5.849003,1.98E-11,,
,5.851003,2.02E-11,,
,5.853003,2.04E-11,,
,5.855003,1.97E-11,,
,5.857003,1.87E-11,,
,5.859003,1.75E-11,,
,5.861003,1.67E-11,,
,5.863003,1.67E-11,,
,5.865003,1.69E-11,,
,5.867003,1.73E-11,,
,5.869003,1.72E-11,,
,5.871003,1.68E-11,,
,5.873003,1.59E-11,,
,5.875003,1.47E-11,,
,5.877003,1.33E-11,,
,5.879003,1.30E-11,,
,5.881003,1.30E-11,,
,5.883003,1.36E-11,,
,5.885003,1.36E-11,,
,5.887003,1.32E-11,,
,5.889003,1.23E-11,,
,5.891003,1.11E-11,,
,5.893003,1.06E-11,,
,5.895003,1.02E-11,,
,5.897003,1.03E-11,,
,5.899003,1.06E-11,,
,5.901003,1.10E-11,,
,5.903003,1.10E-11,,
,5.905003,1.02E-11,,
,5.907003,8.89E-12,,
,5.909003,7.92E-12,,
,5.911003,7.27E-12,,
,5.913003,7.17E-12,,
,5.915003,7.38E-12,,
,5.917003,7.92E-12,,
,5.919003,8.24E-12,,
,5.921003,7.81E-12,,
,5.923003,6.85E-12,,
,5.925003,5.77E-12,,
,5.927003,5.24E-12,,
,5.929003,5.24E-12,,
,5.931003,5.66E-12,,
,5.933003,6.09E-12,,
,5.935003,6.20E-12,,
,5.937003,6.09E-12,,
,5.939003,5.45E-12,,
,5.941003,4.48E-12,,
,5.943003,3.62E-12,,
,5.945003,3.62E-12,,
,5.947003,4.27E-12,,
,5.949003,4.91E-12,,
,5.951003,5.24E-12,,
,5.953003,5.24E-12,,
,5.955003,4.91E-12,,
,5.957003,4.27E-12,,
,5.959003,3.41E-12,,
,5.961003,2.77E-12,,
,5.963003,2.77E-12,,
,5.965003,3.41E-12,,
,5.967003,3.95E-12,,
,5.969003,4.05E-12,,
,5.971003,3.52E-12,,
,5.973003,2.77E-12,,
,5.975003,1.91E-12,,
,5.977003,1.37E-12,,
,5.979003,1.26E-12,,
,5.981003,1.69E-12,,
,5.983003,2.34E-12,,
,5.985003,2.66E-12,,
,5.987003,2.55E-12,,
,5.989003,1.59E-12,,
,5.991003,7.26E-13,,
,5.993003,-2.53E-14,,
,5.995003,-1.33E-13,,
,5.997003,-2.53E-14,,
,5.999003,4.04E-13,,
,6.001003,7.26E-13,,
,6.003003,8.34E-13,,
,6.005003,8.20E-14,,
,6.007003,-6.69E-13,,
,6.009003,-1.53E-12,,
,6.011003,-1.96E-12,,
,6.013003,-1.96E-12,,
,6.015003,-1.85E-12,,
,6.017003,-1.10E-12,,
,6.019003,-1.10E-12,,
,6.021003,-1.21E-12,,
,6.023003,-2.28E-12,,
,6.025003,-3.35E-12,,
,6.027003,-4.00E-12,,
,6.029003,-4.10E-12,,
,6.031003,-3.68E-12,,
,6.033003,-3.25E-12,,
,6.035003,-2.82E-12,,
,6.037003,-2.82E-12,,
,6.039003,-3.57E-12,,
,6.041003,-4.53E-12,,
,6.043003,-5.18E-12,,
,6.045003,-5.29E-12,,
,6.047003,-4.86E-12,,
,6.049003,-4.43E-12,,
,6.051003,-3.89E-12,,
,6.053003,-3.78E-12,,
,6.055003,-4.00E-12,,
,6.057003,-4.64E-12,,
,6.059003,-5.29E-12,,
,6.061003,-5.50E-12,,
,6.063003,-4.96E-12,,
,6.065003,-4.32E-12,,
,6.067003,-3.68E-12,,
,6.069003,-3.25E-12,,
,6.071003,-3.25E-12,,
,6.073003,-3.46E-12,,
,6.075003,-4.10E-12,,
,6.077003,-4.10E-12,,
,6.079003,-3.78E-12,,
,6.081003,-2.82E-12,,
,6.083003,-1.85E-12,,
,6.085003,-8.84E-13,,
,6.087003,-4.55E-13,,
,6.089003,-5.62E-13,,
,6.091003,-7.77E-13,,
,6.093003,-8.84E-13,,
,6.095003,-3.47E-13,,
,6.097003,5.11E-13,,
,6.099003,1.91E-12,,
,6.101003,2.98E-12,,
,6.103003,3.62E-12,,
,6.105003,3.52E-12,,
,6.107003,3.20E-12,,
,6.109003,2.87E-12,,
,6.111003,3.20E-12,,
,6.113003,3.95E-12,,
,6.115003,5.24E-12,,
,6.117003,6.52E-12,,
,6.119003,7.49E-12,,
,6.121003,7.81E-12,,
,6.123003,7.60E-12,,
,6.125003,7.38E-12,,
,6.127003,7.70E-12,,
,6.129003,8.46E-12,,
,6.131003,9.53E-12,,
,6.133003,1.06E-11,,
,6.135003,1.17E-11,,
,6.137003,1.22E-11,,
,6.139003,1.22E-11,,
,6.141003,1.18E-11,,
,6.143003,1.17E-11,,
,6.145003,1.21E-11,,
,6.147003,1.31E-11,,
,6.149003,1.44E-11,,
,6.151003,1.55E-11,,
,6.153003,1.63E-11,,
,6.155003,1.65E-11,,
,6.157003,1.63E-11,,
,6.159003,1.61E-11,,
,6.161003,1.63E-11,,
,6.163003,1.69E-11,,
,6.165003,1.81E-11,,
,6.167003,1.94E-11,,
,6.169003,2.03E-11,,
,6.171003,2.03E-11,,
,6.173003,1.96E-11,,
,6.175003,1.91E-11,,
,6.177003,1.91E-11,,
,6.179003,1.95E-11,,
,6.181003,2.04E-11,,
,6.183003,2.13E-11,,
,6.185003,2.23E-11,,
,6.187003,2.26E-11,,
,6.189003,2.23E-11,,
,6.191003,2.19E-11,,
,6.193003,2.16E-11,,
,6.195003,2.18E-11,,
,6.197003,2.22E-11,,
,6.199003,2.31E-11,,
,6.201003,2.42E-11,,
,6.203003,2.48E-11,,
,6.205003,2.46E-11,,
,6.207003,2.36E-11,,
,6.209003,2.29E-11,,
,6.211003,2.31E-11,,
,6.213003,2.35E-11,,
,6.215003,2.40E-11,,
,6.217003,2.47E-11,,
,6.219003,2.50E-11,,
,6.221003,2.52E-11,,
,6.223003,2.47E-11,,
,6.225003,2.42E-11,,
,6.227003,2.38E-11,,
,6.229003,2.42E-11,,
,6.231003,2.48E-11,,
,6.233003,2.58E-11,,
,6.235003,2.64E-11,,
,6.237003,2.64E-11,,
,6.239003,2.58E-11,,
,6.241003,2.52E-11,,
,6.243003,2.50E-11,,
,6.245003,2.51E-11,,
,6.247003,2.56E-11,,
,6.249003,2.67E-11,,
,6.251003,2.76E-11,,
,6.253003,2.81E-11,,
,6.255003,2.83E-11,,
,6.257003,2.79E-11,,
,6.259003,2.76E-11,,
,6.261003,2.75E-11,,
,6.263003,2.83E-11,,
,6.265003,2.95E-11,,
,6.267003,3.07E-11,,
,6.269003,3.15E-11,,
,6.271003,3.19E-11,,
,6.273003,3.19E-11,,
,6.275003,3.18E-11,,
,6.277003,3.20E-11,,
,6.279003,3.28E-11,,
,6.281003,3.43E-11,,
,6.283003,3.59E-11,,
,6.285003,3.72E-11,,
,6.287003,3.79E-11,,
,6.289003,3.82E-11,,
,6.291003,3.81E-11,,
,6.293003,3.85E-11,,
,6.295003,3.94E-11,,
,6.297003,4.09E-11,,
,6.299003,4.25E-11,,
,6.301003,4.40E-11,,
,6.303003,4.51E-11,,
,6.305003,4.55E-11,,
,6.307003,4.57E-11,,
,6.309003,4.60E-11,,
,6.311003,4.68E-11,,
,6.313003,4.81E-11,,
,6.315003,4.97E-11,,
,6.317003,5.15E-11,,
,6.319003,5.29E-11,,
,6.321003,5.38E-11,,
,6.323003,5.39E-11,,
,6.325003,5.41E-11,,
,6.327003,5.47E-11,,
,6.329003,5.61E-11,,
,6.331003,5.75E-11,,
,6.333003,5.89E-11,,
,6.335003,6.01E-11,,
,6.337003,6.12E-11,,
,6.339003,6.18E-11,,
,6.341003,6.21E-11,,
,6.343003,6.26E-11,,
,6.345003,6.34E-11,,
,6.347003,6.49E-11,,
,6.349003,6.65E-11,,
,6.351003,6.83E-11,,
,6.353003,6.94E-11,,
,6.355003,7.01E-11,,
,6.357003,7.05E-11,,
,6.359003,7.07E-11,,
,6.361003,7.16E-11,,
,6.363003,7.29E-11,,
,6.365003,7.47E-11,,
,6.367003,7.66E-11,,
,6.369003,7.80E-11,,
,6.371003,7.88E-11,,
,6.373003,7.89E-11,,
,6.375003,7.92E-11,,
,6.377003,7.98E-11,,
,6.379003,8.10E-11,,
,6.381003,8.25E-11,,
,6.383003,8.46E-11,,
,6.385003,8.64E-11,,
,6.387003,8.75E-11,,
,6.389003,8.78E-11,,
,6.391003,8.80E-11,,
,6.393003,8.85E-11,,
,6.395003,8.95E-11,,
,6.397003,9.12E-11,,
,6.399003,9.32E-11,,
,6.401003,9.52E-11,,
,6.403003,9.65E-11,,
,6.405003,9.73E-11,,
,6.407003,9.76E-11,,
,6.409003,9.78E-11,,
,6.411003,9.83E-11,,
,6.413003,9.97E-11,,
,6.415003,1.02E-10,,
,6.417003,1.03E-10,,
,6.419003,1.05E-10,,
,6.421003,1.06E-10,,
,6.423003,1.06E-10,,
,6.425003,1.07E-10,,
,6.427003,1.07E-10,,
,6.429003,1.08E-10,,
,6.431003,1.10E-10,,
,6.433003,1.12E-10,,
,6.435003,1.13E-10,,
,6.437003,1.14E-10,,
,6.439003,1.14E-10,,
,6.441003,1.15E-10,,
,6.443003,1.15E-10,,
,6.445003,1.16E-10,,
,6.447003,1.17E-10,,
,6.449003,1.18E-10,,
,6.451003,1.19E-10,,
,6.453003,1.20E-10,,
,6.455003,1.21E-10,,
,6.457003,1.21E-10,,
,6.459003,1.21E-10,,
,6.461003,1.22E-10,,
,6.463003,1.22E-10,,
,6.465003,1.24E-10,,
,6.467003,1.25E-10,,
,6.469003,1.26E-10,,
,6.471003,1.26E-10,,
,6.473003,1.26E-10,,
,6.475003,1.26E-10,,
,6.477003,1.26E-10,,
,6.479003,1.27E-10,,
,6.481003,1.28E-10,,
,6.483003,1.30E-10,,
,6.485003,1.31E-10,,
,6.487003,1.32E-10,,
,6.489003,1.32E-10,,
,6.491003,1.32E-10,,
,6.493003,1.32E-10,,
,6.495003,1.32E-10,,
,6.497003,1.34E-10,,
,6.499003,1.35E-10,,
,6.501003,1.36E-10,,
,6.503003,1.37E-10,,
,6.505003,1.38E-10,,
,6.507003,1.38E-10,,
,6.509003,1.38E-10,,
,6.511003,1.38E-10,,
,6.513003,1.39E-10,,
,6.515003,1.41E-10,,
,6.517003,1.42E-10,,
,6.519003,1.43E-10,,
,6.521003,1.43E-10,,
,6.523003,1.44E-10,,
,6.525003,1.43E-10,,
,6.527003,1.44E-10,,
,6.529003,1.44E-10,,
,6.531003,1.46E-10,,
,6.533003,1.47E-10,,
,6.535003,1.48E-10,,
,6.537003,1.49E-10,,
,6.539003,1.49E-10,,
,6.541003,1.48E-10,,
,6.543003,1.48E-10,,
,6.545003,1.49E-10,,
,6.547003,1.50E-10,,
,6.549003,1.51E-10,,
,6.551003,1.52E-10,,
,6.553003,1.53E-10,,
,6.555003,1.53E-10,,
,6.557003,1.52E-10,,
,6.559003,1.52E-10,,
,6.561003,1.52E-10,,
,6.563003,1.53E-10,,
,6.565003,1.54E-10,,
,6.567003,1.55E-10,,
,6.569003,1.56E-10,,
,6.571003,1.55E-10,,
,6.573003,1.55E-10,,
,6.575003,1.54E-10,,
,6.577003,1.54E-10,,
,6.579003,1.54E-10,,
,6.581003,1.55E-10,,
,6.583003,1.55E-10,,
,6.585003,1.56E-10,,
,6.587003,1.56E-10,,
,6.589003,1.55E-10,,
,6.591003,1.54E-10,,
,6.593003,1.53E-10,,
,6.595003,1.53E-10,,
,6.597003,1.53E-10,,
,6.599003,1.53E-10,,
,6.601003,1.53E-10,,
,6.603003,1.53E-10,,
,6.605003,1.52E-10,,
,6.607003,1.50E-10,,
,6.609003,1.49E-10,,
,6.611003,1.48E-10,,
,6.613003,1.47E-10,,
,6.615003,1.47E-10,,
,6.617003,1.46E-10,,
,6.619003,1.46E-10,,
,6.621003,1.44E-10,,
,6.623003,1.42E-10,,
,6.625003,1.40E-10,,
,6.627003,1.38E-10,,
,6.629003,1.37E-10,,
,6.631003,1.35E-10,,
,6.633003,1.35E-10,,
,6.635003,1.33E-10,,
,6.637003,1.32E-10,,
,6.639003,1.29E-10,,
,6.641003,1.27E-10,,
,6.643003,1.24E-10,,
,6.645003,1.22E-10,,
,6.647003,1.20E-10,,
,6.649003,1.19E-10,,
,6.651003,1.17E-10,,
,6.653003,1.15E-10,,
,6.655003,1.12E-10,,
,6.657003,1.08E-10,,
,6.659003,1.05E-10,,
,6.661003,1.02E-10,,
,6.663003,9.98E-11,,
,6.665003,9.75E-11,,
,6.667003,9.53E-11,,
,6.669003,9.26E-11,,
,6.671003,8.94E-11,,
,6.673003,8.54E-11,,
,6.675003,8.10E-11,,
,6.677003,7.71E-11,,
,6.679003,7.37E-11,,
,6.681003,7.08E-11,,
,6.683003,6.78E-11,,
,6.685003,6.43E-11,,
,6.687003,6.03E-11,,
,6.689003,5.56E-11,,
,6.691003,5.09E-11,,
,6.693003,4.62E-11,,
,6.695003,4.22E-11,,
,6.697003,3.82E-11,,
,6.699003,3.44E-11,,
,6.701003,3.06E-11,,
,6.703003,2.62E-11,,
,6.705003,2.11E-11,,
,6.707003,1.58E-11,,
,6.709003,1.06E-11,,
,6.711003,5.99E-12,,
,6.713003,1.59E-12,,
,6.715003,-2.28E-12,,
,6.717003,-6.14E-12,,
,6.719003,-1.01E-11,,
,6.721003,-1.49E-11,,
,6.723003,-2.00E-11,,
,6.725003,-2.49E-11,,
,6.727003,-2.93E-11,,
,6.729003,-3.32E-11,,
,6.731003,-3.66E-11,,
,6.733003,-3.96E-11,,
,6.735003,-4.32E-11,,
,6.737003,-4.70E-11,,
,6.739003,-5.16E-11,,
,6.741003,-5.60E-11,,
,6.743003,-6.01E-11,,
,6.745003,-6.37E-11,,
,6.747003,-6.66E-11,,
,6.749003,-6.92E-11,,
,6.751003,-7.16E-11,,
,6.753003,-7.44E-11,,
,6.755003,-7.78E-11,,
,6.757003,-8.13E-11,,
,6.759003,-8.46E-11,,
,6.761003,-8.73E-11,,
,6.763003,-8.93E-11,,
,6.765003,-9.11E-11,,
,6.767003,-9.27E-11,,
,6.769003,-9.46E-11,,
,6.771003,-9.70E-11,,
,6.773003,-1.00E-10,,
,6.775003,-1.03E-10,,
,6.777003,-1.05E-10,,
,6.779003,-1.07E-10,,
,6.781003,-1.08E-10,,
,6.783003,-1.09E-10,,
,6.785003,-1.10E-10,,
,6.787003,-1.11E-10,,
,6.789003,-1.13E-10,,
,6.791003,-1.15E-10,,
,6.793003,-1.17E-10,,
,6.795003,-1.18E-10,,
,6.797003,-1.19E-10,,
,6.799003,-1.19E-10,,
,6.801003,-1.20E-10,,
,6.803003,-1.20E-10,,
,6.805003,-1.22E-10,,
,6.807003,-1.24E-10,,
,6.809003,-1.25E-10,,
,6.811003,-1.26E-10,,
,6.813003,-1.26E-10,,
,6.815003,-1.26E-10,,
,6.817003,-1.26E-10,,
,6.819003,-1.26E-10,,
,6.821003,-1.27E-10,,
,6.823003,-1.28E-10,,
,6.825003,-1.29E-10,,
,6.827003,-1.30E-10,,
,6.829003,-1.30E-10,,
,6.831003,-1.30E-10,,
,6.833003,-1.30E-10,,
,6.835003,-1.29E-10,,
,6.837003,-1.30E-10,,
,6.839003,-1.30E-10,,
,6.841003,-1.31E-10,,
,6.843003,-1.32E-10,,
,6.845003,-1.32E-10,,
,6.847003,-1.32E-10,,
,6.849003,-1.31E-10,,
,6.851003,-1.31E-10,,
,6.853003,-1.30E-10,,
,6.855003,-1.30E-10,,
,6.857003,-1.31E-10,,
,6.859003,-1.31E-10,,
,6.861003,-1.31E-10,,
,6.863003,-1.31E-10,,
,6.865003,-1.30E-10,,
,6.867003,-1.29E-10,,
,6.869003,-1.29E-10,,
,6.871003,-1.29E-10,,
,6.873003,-1.29E-10,,
,6.875003,-1.29E-10,,
,6.877003,-1.29E-10,,
,6.879003,-1.29E-10,,
,6.881003,-1.28E-10,,
,6.883003,-1.27E-10,,
,6.885003,-1.26E-10,,
,6.887003,-1.25E-10,,
,6.889003,-1.25E-10,,
,6.891003,-1.25E-10,,
,6.893003,-1.25E-10,,
,6.895003,-1.25E-10,,
,6.897003,-1.23E-10,,
,6.899003,-1.22E-10,,
,6.901003,-1.21E-10,,
,6.903003,-1.20E-10,,
,6.905003,-1.20E-10,,
,6.907003,-1.20E-10,,
,6.909003,-1.20E-10,,
,6.911003,-1.19E-10,,
,6.913003,-1.18E-10,,
,6.915003,-1.17E-10,,
,6.917003,-1.15E-10,,
,6.919003,-1.14E-10,,
,6.921003,-1.13E-10,,
,6.923003,-1.13E-10,,
,6.925003,-1.13E-10,,
,6.927003,-1.12E-10,,
,6.929003,-1.11E-10,,
,6.931003,-1.10E-10,,
,6.933003,-1.08E-10,,
,6.935003,-1.07E-10,,
,6.937003,-1.06E-10,,
,6.939003,-1.05E-10,,
,6.941003,-1.05E-10,,
,6.943003,-1.05E-10,,
,6.945003,-1.04E-10,,
,6.947003,-1.03E-10,,
,6.949003,-1.01E-10,,
,6.951003,-9.99E-11,,
,6.953003,-9.84E-11,,
,6.955003,-9.76E-11,,
,6.957003,-9.73E-11,,
,6.959003,-9.71E-11,,
,6.961003,-9.64E-11,,
,6.963003,-9.51E-11,,
,6.965003,-9.34E-11,,
,6.967003,-9.17E-11,,
,6.969003,-9.02E-11,,
,6.971003,-8.96E-11,,
,6.973003,-8.93E-11,,
,6.975003,-8.92E-11,,
,6.977003,-8.87E-11,,
,6.979003,-8.77E-11,,
,6.981003,-8.64E-11,,
,6.983003,-8.48E-11,,
,6.985003,-8.37E-11,,
,6.987003,-8.28E-11,,
,6.989003,-8.26E-11,,
,6.991003,-8.20E-11,,
,6.993003,-8.15E-11,,
,6.995003,-8.06E-11,,
,6.997003,-7.95E-11,,
,6.999003,-7.79E-11,,
,7.001003,-7.62E-11,,
,7.003003,-7.52E-11,,
,7.005003,-7.50E-11,,
,7.007003,-7.52E-11,,
,7.009003,-7.51E-11,,
,7.011003,-7.46E-11,,
,7.013003,-7.36E-11,,
,7.015003,-7.24E-11,,
,7.017003,-7.11E-11,,
,7.019003,-7.02E-11,,
,7.021003,-6.98E-11,,
,7.023003,-6.97E-11,,
,7.025003,-6.97E-11,,
,7.027003,-6.94E-11,,
,7.029003,-6.86E-11,,
,7.031003,-6.74E-11,,
,7.033003,-6.60E-11,,
,7.035003,-6.50E-11,,
,7.037003,-6.43E-11,,
,7.039003,-6.44E-11,,
,7.041003,-6.49E-11,,
,7.043003,-6.49E-11,,
,7.045003,-6.45E-11,,
,7.047003,-6.35E-11,,
,7.049003,-6.25E-11,,
,7.051003,-6.13E-11,,
,7.053003,-6.09E-11,,
,7.055003,-6.08E-11,,
,7.057003,-6.11E-11,,
,7.059003,-6.11E-11,,
,7.061003,-6.08E-11,,
,7.063003,-6.01E-11,,
,7.065003,-5.90E-11,,
,7.067003,-5.78E-11,,
,7.069003,-5.70E-11,,
,7.071003,-5.71E-11,,
,7.073003,-5.78E-11,,
,7.075003,-5.83E-11,,
,7.077003,-5.83E-11,,
,7.079003,-5.79E-11,,
,7.081003,-5.68E-11,,
,7.083003,-5.60E-11,,
,7.085003,-5.51E-11,,
,7.087003,-5.51E-11,,
,7.089003,-5.51E-11,,
,7.091003,-5.54E-11,,
,7.093003,-5.53E-11,,
,7.095003,-5.52E-11,,
,7.097003,-5.45E-11,,
,7.099003,-5.36E-11,,
,7.101003,-5.27E-11,,
,7.103003,-5.24E-11,,
,7.105003,-5.26E-11,,
,7.107003,-5.32E-11,,
,7.109003,-5.39E-11,,
,7.111003,-5.39E-11,,
,7.113003,-5.34E-11,,
,7.115003,-5.24E-11,,
,7.117003,-5.16E-11,,
,7.119003,-5.10E-11,,
,7.121003,-5.08E-11,,
,7.123003,-5.11E-11,,
,7.125003,-5.18E-11,,
,7.127003,-5.21E-11,,
,7.129003,-5.18E-11,,
,7.131003,-5.07E-11,,
,7.133003,-4.95E-11,,
,7.135003,-4.88E-11,,
,7.137003,-4.87E-11,,
,7.139003,-4.91E-11,,
,7.141003,-4.95E-11,,
,7.143003,-4.97E-11,,
,7.145003,-4.93E-11,,
,7.147003,-4.87E-11,,
,7.149003,-4.76E-11,,
,7.151003,-4.69E-11,,
,7.153003,-4.65E-11,,
,7.155003,-4.67E-11,,
,7.157003,-4.73E-11,,
,7.159003,-4.77E-11,,
,7.161003,-4.79E-11,,
,7.163003,-4.75E-11,,
,7.165003,-4.65E-11,,
,7.167003,-4.53E-11,,
,7.169003,-4.45E-11,,
,7.171003,-4.46E-11,,
,7.173003,-4.52E-11,,
,7.175003,-4.59E-11,,
,7.177003,-4.60E-11,,
,7.179003,-4.57E-11,,
,7.181003,-4.46E-11,,
,7.183003,-4.36E-11,,
,7.185003,-4.25E-11,,
,7.187003,-4.23E-11,,
,7.189003,-4.26E-11,,
,7.191003,-4.31E-11,,
,7.193003,-4.33E-11,,
,7.195003,-4.28E-11,,
,7.197003,-4.18E-11,,
,7.199003,-4.07E-11,,
,7.201003,-3.97E-11,,
,7.203003,-3.93E-11,,
,7.205003,-3.95E-11,,
,7.207003,-4.02E-11,,
,7.209003,-4.06E-11,,
,7.211003,-4.03E-11,,
,7.213003,-3.94E-11,,
,7.215003,-3.80E-11,,
,7.217003,-3.71E-11,,
,7.219003,-3.62E-11,,
,7.221003,-3.65E-11,,
,7.223003,-3.68E-11,,
,7.225003,-3.76E-11,,
,7.227003,-3.76E-11,,
,7.229003,-3.70E-11,,
,7.231003,-3.58E-11,,
,7.233003,-3.45E-11,,
,7.235003,-3.38E-11,,
,7.237003,-3.36E-11,,
,7.239003,-3.39E-11,,
,7.241003,-3.44E-11,,
,7.243003,-3.46E-11,,
,7.245003,-3.44E-11,,
,7.247003,-3.35E-11,,
,7.249003,-3.24E-11,,
,7.251003,-3.14E-11,,
,7.253003,-3.09E-11,,
,7.255003,-3.11E-11,,
,7.257003,-3.18E-11,,
,7.259003,-3.22E-11,,
,7.261003,-3.22E-11,,
,7.263003,-3.14E-11,,
,7.265003,-3.03E-11,,
,7.267003,-2.94E-11,,
,7.269003,-2.88E-11,,
,7.271003,-2.88E-11,,
,7.273003,-2.91E-11,,
,7.275003,-2.97E-11,,
,7.277003,-2.97E-11,,
,7.279003,-2.89E-11,,
,7.281003,-2.80E-11,,
,7.283003,-2.71E-11,,
,7.285003,-2.65E-11,,
,7.287003,-2.65E-11,,
,7.289003,-2.70E-11,,
,7.291003,-2.75E-11,,
,7.293003,-2.75E-11,,
,7.295003,-2.72E-11,,
,7.297003,-2.64E-11,,
,7.299003,-2.55E-11,,
,7.301003,-2.46E-11,,
,7.303003,-2.40E-11,,
,7.305003,-2.42E-11,,
,7.307003,-2.46E-11,,
,7.309003,-2.49E-11,,
,7.311003,-2.48E-11,,
,7.313003,-2.42E-11,,
,7.315003,-2.34E-11,,
,7.317003,-2.27E-11,,
,7.319003,-2.22E-11,,
,7.321003,-2.24E-11,,
,7.323003,-2.30E-11,,
,7.325003,-2.35E-11,,
,7.327003,-2.36E-11,,
,7.329003,-2.29E-11,,
,7.331003,-2.20E-11,,
,7.333003,-2.10E-11,,
,7.335003,-2.00E-11,,
,7.337003,-2.00E-11,,
,7.339003,-2.04E-11,,
,7.341003,-2.14E-11,,
,7.343003,-2.15E-11,,
,7.345003,-2.16E-11,,
,7.347003,-2.10E-11,,
,7.349003,-2.03E-11,,
,7.351003,-1.97E-11,,
,7.353003,-1.96E-11,,
,7.355003,-2.01E-11,,
,7.357003,-2.10E-11,,
,7.359003,-2.17E-11,,
,7.361003,-2.17E-11,,
,7.363003,-2.14E-11,,
,7.365003,-2.05E-11,,
,7.367003,-1.99E-11,,
,7.369003,-1.93E-11,,
,7.371003,-1.97E-11,,
,7.373003,-2.03E-11,,
,7.375003,-2.13E-11,,
,7.377003,-2.18E-11,,
,7.379003,-2.19E-11,,
,7.381003,-2.12E-11,,
,7.383003,-2.06E-11,,
,7.385003,-2.02E-11,,
,7.387003,-2.04E-11,,
,7.389003,-2.09E-11,,
,7.391003,-2.16E-11,,
,7.393003,-2.21E-11,,
,7.395003,-2.22E-11,,
,7.397003,-2.18E-11,,
,7.399003,-2.12E-11,,
,7.401003,-2.06E-11,,
,7.403003,-2.04E-11,,
,7.405003,-2.10E-11,,
,7.407003,-2.17E-11,,
,7.409003,-2.26E-11,,
,7.411003,-2.29E-11,,
,7.413003,-2.28E-11,,
,7.415003,-2.21E-11,,
,7.417003,-2.13E-11,,
,7.419003,-2.06E-11,,
,7.421003,-2.09E-11,,
,7.423003,-2.17E-11,,
,7.425003,-2.26E-11,,
,7.427003,-2.30E-11,,
,7.429003,-2.26E-11,,
,7.431003,-2.19E-11,,
,7.433003,-2.10E-11,,
,7.435003,-2.05E-11,,
,7.437003,-2.05E-11,,
,7.439003,-2.12E-11,,
,7.441003,-2.19E-11,,
,7.443003,-2.26E-11,,
,7.445003,-2.27E-11,,
,7.447003,-2.22E-11,,
,7.449003,-2.12E-11,,
,7.451003,-2.04E-11,,
,7.453003,-2.02E-11,,
,7.455003,-2.07E-11,,
,7.457003,-2.14E-11,,
,7.459003,-2.20E-11,,
,7.461003,-2.21E-11,,
,7.463003,-2.17E-11,,
,7.465003,-2.06E-11,,
,7.467003,-1.97E-11,,
,7.469003,-1.93E-11,,
,7.471003,-1.99E-11,,
,7.473003,-2.06E-11,,
,7.475003,-2.12E-11,,
,7.477003,-2.11E-11,,
,7.479003,-2.07E-11,,
,7.481003,-1.99E-11,,
,7.483003,-1.90E-11,,
,7.485003,-1.84E-11,,
,7.487003,-1.85E-11,,
,7.489003,-1.89E-11,,
,7.491003,-1.95E-11,,
,7.493003,-1.97E-11,,
,7.495003,-1.96E-11,,
,7.497003,-1.90E-11,,
,7.499003,-1.81E-11,,
,7.501003,-1.73E-11,,
,7.503003,-1.69E-11,,
,7.505003,-1.69E-11,,
,7.507003,-1.74E-11,,
,7.509003,-1.78E-11,,
,7.511003,-1.81E-11,,
,7.513003,-1.74E-11,,
,7.515003,-1.66E-11,,
,7.517003,-1.56E-11,,
,7.519003,-1.51E-11,,
,7.521003,-1.48E-11,,
,7.523003,-1.55E-11,,
,7.525003,-1.60E-11,,
,7.527003,-1.62E-11,,
,7.529003,-1.58E-11,,
,7.531003,-1.48E-11,,
,7.533003,-1.39E-11,,
,7.535003,-1.30E-11,,
,7.537003,-1.29E-11,,
,7.539003,-1.36E-11,,
,7.541003,-1.40E-11,,
,7.543003,-1.44E-11,,
,7.545003,-1.39E-11,,
,7.547003,-1.32E-11,,
,7.549003,-1.20E-11,,
,7.551003,-1.13E-11,,
,7.553003,-1.11E-11,,
,7.555003,-1.13E-11,,
,7.557003,-1.20E-11,,
,7.559003,-1.24E-11,,
,7.561003,-1.26E-11,,
,7.563003,-1.19E-11,,
,7.565003,-1.10E-11,,
,7.567003,-1.01E-11,,
,7.569003,-9.47E-12,,
,7.571003,-9.47E-12,,
,7.573003,-9.69E-12,,
,7.575003,-1.04E-11,,
,7.577003,-1.09E-11,,
,7.579003,-1.08E-11,,
,7.581003,-1.00E-11,,
,7.583003,-9.04E-12,,
,7.585003,-8.40E-12,,
,7.587003,-8.29E-12,,
,7.589003,-8.94E-12,,
,7.591003,-9.69E-12,,
,7.593003,-1.00E-11,,
,7.595003,-9.90E-12,,
,7.597003,-9.37E-12,,
,7.599003,-8.61E-12,,
,7.601003,-7.97E-12,,
,7.603003,-7.75E-12,,
,7.605003,-8.18E-12,,
,7.607003,-8.83E-12,,
,7.609003,-9.37E-12,,
,7.611003,-9.79E-12,,
,7.613003,-9.69E-12,,
,7.615003,-9.15E-12,,
,7.617003,-8.61E-12,,
,7.619003,-8.40E-12,,
,7.621003,-8.83E-12,,
,7.623003,-9.37E-12,,
,7.625003,-1.01E-11,,
,7.627003,-1.05E-11,,
,7.629003,-1.03E-11,,
,7.631003,-9.90E-12,,
,7.633003,-9.26E-12,,
,7.635003,-9.15E-12,,
,7.637003,-9.47E-12,,
,7.639003,-1.03E-11,,
,7.641003,-1.13E-11,,
,7.643003,-1.20E-11,,
,7.645003,-1.20E-11,,
,7.647003,-1.17E-11,,
,7.649003,-1.12E-11,,
,7.651003,-1.08E-11,,
,7.653003,-1.09E-11,,
,7.655003,-1.15E-11,,
,7.657003,-1.25E-11,,
,7.659003,-1.32E-11,,
,7.661003,-1.33E-11,,
,7.663003,-1.32E-11,,
,7.665003,-1.28E-11,,
,7.667003,-1.24E-11,,
,7.669003,-1.22E-11,,
,7.671003,-1.25E-11,,
,7.673003,-1.32E-11,,
,7.675003,-1.41E-11,,
,7.677003,-1.46E-11,,
,7.679003,-1.47E-11,,
,7.681003,-1.44E-11,,
,7.683003,-1.39E-11,,
,7.685003,-1.34E-11,,
,7.687003,-1.37E-11,,
,7.689003,-1.43E-11,,
,7.691003,-1.52E-11,,
,7.693003,-1.57E-11,,
,7.695003,-1.57E-11,,
,7.697003,-1.53E-11,,
,7.699003,-1.45E-11,,
,7.701003,-1.41E-11,,
,7.703003,-1.41E-11,,
,7.705003,-1.46E-11,,
,7.707003,-1.54E-11,,
,7.709003,-1.59E-11,,
,7.711003,-1.61E-11,,
,7.713003,-1.58E-11,,
,7.715003,-1.52E-11,,
,7.717003,-1.46E-11,,
,7.719003,-1.44E-11,,
,7.721003,-1.47E-11,,
,7.723003,-1.54E-11,,
,7.725003,-1.58E-11,,
,7.727003,-1.61E-11,,
,7.729003,-1.57E-11,,
,7.731003,-1.52E-11,,
,7.733003,-1.43E-11,,
,7.735003,-1.38E-11,,
,7.737003,-1.40E-11,,
,7.739003,-1.45E-11,,
,7.741003,-1.53E-11,,
,7.743003,-1.54E-11,,
,7.745003,-1.55E-11,,
,7.747003,-1.49E-11,,
,7.749003,-1.43E-11,,
,7.751003,-1.33E-11,,
,7.753003,-1.29E-11,,
,7.755003,-1.30E-11,,
,7.757003,-1.34E-11,,
,7.759003,-1.41E-11,,
,7.761003,-1.41E-11,,
,7.763003,-1.36E-11,,
,7.765003,-1.27E-11,,
,7.767003,-1.18E-11,,
,7.769003,-1.16E-11,,
,7.771003,-1.15E-11,,
,7.773003,-1.19E-11,,
,7.775003,-1.23E-11,,
,7.777003,-1.27E-11,,
,7.779003,-1.24E-11,,
,7.781003,-1.16E-11,,
,7.783003,-1.03E-11,,
,7.785003,-9.69E-12,,
,7.787003,-9.58E-12,,
,7.789003,-1.02E-11,,
,7.791003,-1.07E-11,,
,7.793003,-1.09E-11,,
,7.795003,-1.04E-11,,
,7.797003,-1.00E-11,,
,7.799003,-9.15E-12,,
,7.801003,-8.61E-12,,
,7.803003,-8.29E-12,,
,7.805003,-8.61E-12,,
,7.807003,-9.26E-12,,
,7.809003,-9.58E-12,,
,7.811003,-9.58E-12,,
,7.813003,-8.94E-12,,
,7.815003,-8.18E-12,,
,7.817003,-7.33E-12,,
,7.819003,-7.00E-12,,
,7.821003,-7.11E-12,,
,7.823003,-7.75E-12,,
,7.825003,-8.29E-12,,
,7.827003,-8.72E-12,,
,7.829003,-8.40E-12,,
,7.831003,-7.43E-12,,
,7.833003,-6.68E-12,,
,7.835003,-6.14E-12,,
,7.837003,-6.36E-12,,
,7.839003,-6.47E-12,,
,7.841003,-6.90E-12,,
,7.843003,-7.11E-12,,
,7.845003,-7.00E-12,,
,7.847003,-6.47E-12,,
,7.849003,-5.82E-12,,
,7.851003,-5.07E-12,,
,7.853003,-4.96E-12,,
,7.855003,-5.50E-12,,
,7.857003,-6.47E-12,,
,7.859003,-7.33E-12,,
,7.861003,-7.43E-12,,
,7.863003,-7.11E-12,,
,7.865003,-6.25E-12,,
,7.867003,-5.72E-12,,
,7.869003,-5.18E-12,,
,7.871003,-5.39E-12,,
,7.873003,-5.72E-12,,
,7.875003,-6.36E-12,,
,7.877003,-6.79E-12,,
,7.879003,-6.68E-12,,
,7.881003,-6.04E-12,,
,7.883003,-5.07E-12,,
,7.885003,-4.43E-12,,
,7.887003,-4.75E-12,,
,7.889003,-5.50E-12,,
,7.891003,-6.25E-12,,
,7.893003,-6.79E-12,,
,7.895003,-6.79E-12,,
,7.897003,-6.25E-12,,
,7.899003,-5.18E-12,,
,7.901003,-4.32E-12,,
,7.903003,-4.10E-12,,
,7.905003,-4.64E-12,,
,7.907003,-5.29E-12,,
,7.909003,-5.82E-12,,
,7.911003,-5.93E-12,,
,7.913003,-5.61E-12,,
,7.915003,-5.07E-12,,
,7.917003,-4.32E-12,,
,7.919003,-4.10E-12,,
,7.921003,-4.32E-12,,
,7.923003,-5.07E-12,,
,7.925003,-5.61E-12,,
,7.927003,-5.93E-12,,
,7.929003,-5.72E-12,,
,7.931003,-5.18E-12,,
,7.933003,-4.53E-12,,
,7.935003,-4.10E-12,,
,7.937003,-4.10E-12,,
,7.939003,-4.64E-12,,
,7.941003,-5.50E-12,,
,7.943003,-6.25E-12,,
,7.945003,-6.36E-12,,
,7.947003,-5.82E-12,,
,7.949003,-4.96E-12,,
,7.951003,-4.32E-12,,
,7.953003,-4.10E-12,,
,7.955003,-4.64E-12,,
,7.957003,-5.39E-12,,
,7.959003,-6.25E-12,,
,7.961003,-6.36E-12,,
,7.963003,-5.82E-12,,
,7.965003,-4.96E-12,,
,7.967003,-4.10E-12,,
,7.969003,-3.68E-12,,
,7.971003,-3.89E-12,,
,7.973003,-4.86E-12,,
,7.975003,-5.82E-12,,
,7.977003,-6.14E-12,,
,7.979003,-5.82E-12,,
,7.981003,-5.07E-12,,
,7.983003,-4.32E-12,,
,7.985003,-3.78E-12,,
,7.987003,-4.00E-12,,
,7.989003,-4.53E-12,,
,7.991003,-5.18E-12,,
,7.993003,-5.72E-12,,
,7.995003,-5.61E-12,,
,7.997003,-5.07E-12,,
,7.999003,-4.32E-12,,
,8.001003,-3.78E-12,,
,8.003003,-3.68E-12,,
,8.005003,-4.00E-12,,
,8.007003,-4.64E-12,,
,8.009003,-5.18E-12,,
,8.011003,-5.07E-12,,
,8.013003,-4.75E-12,,
,8.015003,-3.89E-12,,
,8.017003,-3.35E-12,,
,8.019003,-2.92E-12,,
,8.021003,-3.57E-12,,
,8.023003,-4.21E-12,,
,8.025003,-4.96E-12,,
,8.027003,-5.18E-12,,
,8.029003,-4.86E-12,,
,8.031003,-4.21E-12,,
,8.033003,-3.46E-12,,
,8.035003,-2.82E-12,,
,8.037003,-2.71E-12,,
,8.039003,-3.03E-12,,
,8.041003,-3.78E-12,,
,8.043003,-4.10E-12,,
,8.045003,-4.00E-12,,
,8.047003,-3.35E-12,,
,8.049003,-2.49E-12,,
,8.051003,-1.64E-12,,
,8.053003,-1.42E-12,,
,8.055003,-1.74E-12,,
,8.057003,-2.39E-12,,
,8.059003,-2.82E-12,,
,8.061003,-2.82E-12,,
,8.063003,-2.17E-12,,
,8.065003,-1.31E-12,,
,8.067003,-2.40E-13,,
,8.069003,2.97E-13,,
,8.071003,2.97E-13,,
,8.073003,-1.33E-13,,
,8.075003,-4.55E-13,,
,8.077003,-4.55E-13,,
,8.079003,-2.53E-14,,
,8.081003,1.05E-12,,
,8.083003,2.34E-12,,
,8.085003,3.20E-12,,
,8.087003,3.20E-12,,
,8.089003,3.09E-12,,
,8.091003,2.98E-12,,
,8.093003,3.09E-12,,
,8.095003,3.30E-12,,
,8.097003,4.16E-12,,
,8.099003,5.45E-12,,
,8.101003,7.17E-12,,
,8.103003,7.70E-12,,
,8.105003,7.92E-12,,
,8.107003,7.38E-12,,
,8.109003,7.60E-12,,
,8.111003,8.24E-12,,
,8.113003,9.31E-12,,
,8.115003,1.07E-11,,
,8.117003,1.21E-11,,
,8.119003,1.33E-11,,
,8.121003,1.39E-11,,
,8.123003,1.39E-11,,
,8.125003,1.39E-11,,
,8.127003,1.44E-11,,
,8.129003,1.53E-11,,
,8.131003,1.68E-11,,
,8.133003,1.84E-11,,
,8.135003,1.98E-11,,
,8.137003,2.07E-11,,
,8.139003,2.10E-11,,
,8.141003,2.12E-11,,
,8.143003,2.18E-11,,
,8.145003,2.28E-11,,
,8.147003,2.45E-11,,
,8.149003,2.65E-11,,
,8.151003,2.81E-11,,
,8.153003,2.94E-11,,
,8.155003,2.96E-11,,
,8.157003,2.99E-11,,
,8.159003,3.02E-11,,
,8.161003,3.13E-11,,
,8.163003,3.27E-11,,
,8.165003,3.45E-11,,
,8.167003,3.63E-11,,
,8.169003,3.78E-11,,
,8.171003,3.86E-11,,
,8.173003,3.92E-11,,
,8.175003,3.96E-11,,
,8.177003,4.08E-11,,
,8.179003,4.23E-11,,
,8.181003,4.41E-11,,
,8.183003,4.58E-11,,
,8.185003,4.75E-11,,
,8.187003,4.86E-11,,
,8.189003,4.91E-11,,
,8.191003,4.95E-11,,
,8.193003,5.03E-11,,
,8.195003,5.14E-11,,
,8.197003,5.29E-11,,
,8.199003,5.48E-11,,
,8.201003,5.69E-11,,
,8.203003,5.85E-11,,
,8.205003,5.91E-11,,
,8.207003,5.96E-11,,
,8.209003,5.99E-11,,
,8.211003,6.12E-11,,
,8.213003,6.26E-11,,
,8.215003,6.46E-11,,
,8.217003,6.61E-11,,
,8.219003,6.75E-11,,
,8.221003,6.80E-11,,
,8.223003,6.86E-11,,
,8.225003,6.90E-11,,
,8.227003,7.02E-11,,
,8.229003,7.14E-11,,
,8.231003,7.31E-11,,
,8.233003,7.48E-11,,
,8.235003,7.67E-11,,
,8.237003,7.79E-11,,
,8.239003,7.82E-11,,
,8.241003,7.85E-11,,
,8.243003,7.93E-11,,
,8.245003,8.05E-11,,
,8.247003,8.19E-11,,
,8.249003,8.34E-11,,
,8.251003,8.51E-11,,
,8.253003,8.65E-11,,
,8.255003,8.70E-11,,
,8.257003,8.73E-11,,
,8.259003,8.76E-11,,
,8.261003,8.84E-11,,
,8.263003,8.98E-11,,
,8.265003,9.15E-11,,
,8.267003,9.33E-11,,
,8.269003,9.48E-11,,
,8.271003,9.53E-11,,
,8.273003,9.58E-11,,
,8.275003,9.60E-11,,
,8.277003,9.68E-11,,
,8.279003,9.78E-11,,
,8.281003,9.95E-11,,
,8.283003,1.01E-10,,
,8.285003,1.03E-10,,
,8.287003,1.04E-10,,
,8.289003,1.04E-10,,
,8.291003,1.04E-10,,
,8.293003,1.05E-10,,
,8.295003,1.06E-10,,
,8.297003,1.08E-10,,
,8.299003,1.09E-10,,
,8.301003,1.11E-10,,
,8.303003,1.12E-10,,
,8.305003,1.13E-10,,
,8.307003,1.13E-10,,
,8.309003,1.14E-10,,
,8.311003,1.15E-10,,
,8.313003,1.16E-10,,
,8.315003,1.18E-10,,
,8.317003,1.19E-10,,
,8.319003,1.20E-10,,
,8.321003,1.21E-10,,
,8.323003,1.21E-10,,
,8.325003,1.22E-10,,
,8.327003,1.22E-10,,
,8.329003,1.24E-10,,
,8.331003,1.26E-10,,
,8.333003,1.27E-10,,
,8.335003,1.29E-10,,
,8.337003,1.30E-10,,
,8.339003,1.31E-10,,
,8.341003,1.31E-10,,
,8.343003,1.31E-10,,
,8.345003,1.32E-10,,
,8.347003,1.34E-10,,
,8.349003,1.36E-10,,
,8.351003,1.37E-10,,
,8.353003,1.38E-10,,
,8.355003,1.39E-10,,
,8.357003,1.39E-10,,
,8.359003,1.39E-10,,
,8.361003,1.40E-10,,
,8.363003,1.41E-10,,
,8.365003,1.43E-10,,
,8.367003,1.45E-10,,
,8.369003,1.46E-10,,
,8.371003,1.47E-10,,
,8.373003,1.47E-10,,
,8.375003,1.47E-10,,
,8.377003,1.48E-10,,
,8.379003,1.49E-10,,
,8.381003,1.50E-10,,
,8.383003,1.52E-10,,
,8.385003,1.53E-10,,
,8.387003,1.54E-10,,
,8.389003,1.54E-10,,
,8.391003,1.55E-10,,
,8.393003,1.55E-10,,
,8.395003,1.56E-10,,
,8.397003,1.57E-10,,
,8.399003,1.59E-10,,
,8.401003,1.60E-10,,
,8.403003,1.61E-10,,
,8.405003,1.61E-10,,
,8.407003,1.61E-10,,
,8.409003,1.62E-10,,
,8.411003,1.62E-10,,
,8.413003,1.63E-10,,
,8.415003,1.65E-10,,
,8.417003,1.66E-10,,
,8.419003,1.67E-10,,
,8.421003,1.67E-10,,
,8.423003,1.67E-10,,
,8.425003,1.68E-10,,
,8.427003,1.68E-10,,
,8.429003,1.69E-10,,
,8.431003,1.70E-10,,
,8.433003,1.72E-10,,
,8.435003,1.72E-10,,
,8.437003,1.73E-10,,
,8.439003,1.73E-10,,
,8.441003,1.73E-10,,
,8.443003,1.73E-10,,
,8.445003,1.73E-10,,
,8.447003,1.75E-10,,
,8.449003,1.76E-10,,
,8.451003,1.77E-10,,
,8.453003,1.78E-10,,
,8.455003,1.78E-10,,
,8.457003,1.77E-10,,
,8.459003,1.77E-10,,
,8.461003,1.77E-10,,
,8.463003,1.78E-10,,
,8.465003,1.79E-10,,
,8.467003,1.81E-10,,
,8.469003,1.81E-10,,
,8.471003,1.81E-10,,
,8.473003,1.81E-10,,
,8.475003,1.80E-10,,
,8.477003,1.81E-10,,
,8.479003,1.81E-10,,
,8.481003,1.82E-10,,
,8.483003,1.83E-10,,
,8.485003,1.83E-10,,
,8.487003,1.83E-10,,
,8.489003,1.83E-10,,
,8.491003,1.82E-10,,
,8.493003,1.82E-10,,
,8.495003,1.82E-10,,
,8.497003,1.83E-10,,
,8.499003,1.84E-10,,
,8.501003,1.85E-10,,
,8.503003,1.85E-10,,
,8.505003,1.84E-10,,
,8.507003,1.83E-10,,
,8.509003,1.82E-10,,
,8.511003,1.82E-10,,
,8.513003,1.83E-10,,
,8.515003,1.83E-10,,
,8.517003,1.84E-10,,
,8.519003,1.84E-10,,
,8.521003,1.83E-10,,
,8.523003,1.82E-10,,
,8.525003,1.82E-10,,
,8.527003,1.81E-10,,
,8.529003,1.81E-10,,
,8.531003,1.81E-10,,
,8.533003,1.81E-10,,
,8.535003,1.82E-10,,
,8.537003,1.81E-10,,
,8.539003,1.81E-10,,
,8.541003,1.80E-10,,
,8.543003,1.79E-10,,
,8.545003,1.78E-10,,
,8.547003,1.78E-10,,
,8.549003,1.78E-10,,
,8.551003,1.78E-10,,
,8.553003,1.78E-10,,
,8.555003,1.77E-10,,
,8.557003,1.76E-10,,
,8.559003,1.74E-10,,
,8.561003,1.74E-10,,
,8.563003,1.74E-10,,
,8.565003,1.74E-10,,
,8.567003,1.74E-10,,
,8.569003,1.73E-10,,
,8.571003,1.72E-10,,
,8.573003,1.71E-10,,
,8.575003,1.69E-10,,
,8.577003,1.69E-10,,
,8.579003,1.68E-10,,
,8.581003,1.68E-10,,
,8.583003,1.68E-10,,
,8.585003,1.68E-10,,
,8.587003,1.67E-10,,
,8.589003,1.65E-10,,
,8.591003,1.64E-10,,
,8.593003,1.63E-10,,
,8.595003,1.62E-10,,
,8.597003,1.62E-10,,
,8.599003,1.61E-10,,
,8.601003,1.61E-10,,
,8.603003,1.60E-10,,
,8.605003,1.60E-10,,
,8.607003,1.58E-10,,
,8.609003,1.57E-10,,
,8.611003,1.55E-10,,
,8.613003,1.55E-10,,
,8.615003,1.55E-10,,
,8.617003,1.55E-10,,
,8.619003,1.54E-10,,
,8.621003,1.53E-10,,
,8.623003,1.51E-10,,
,8.625003,1.50E-10,,
,8.627003,1.49E-10,,
,8.629003,1.48E-10,,
,8.631003,1.48E-10,,
,8.633003,1.48E-10,,
,8.635003,1.48E-10,,
,8.637003,1.47E-10,,
,8.639003,1.45E-10,,
,8.641003,1.44E-10,,
,8.643003,1.42E-10,,
,8.645003,1.41E-10,,
,8.647003,1.41E-10,,
,8.649003,1.41E-10,,
,8.651003,1.41E-10,,
,8.653003,1.40E-10,,
,8.655003,1.38E-10,,
,8.657003,1.37E-10,,
,8.659003,1.36E-10,,
,8.661003,1.35E-10,,
,8.663003,1.35E-10,,
,8.665003,1.34E-10,,
,8.667003,1.34E-10,,
,8.669003,1.34E-10,,
,8.671003,1.33E-10,,
,8.673003,1.32E-10,,
,8.675003,1.30E-10,,
,8.677003,1.29E-10,,
,8.679003,1.29E-10,,
,8.681003,1.29E-10,,
,8.683003,1.29E-10,,
,8.685003,1.28E-10,,
,8.687003,1.27E-10,,
,8.689003,1.26E-10,,
,8.691003,1.25E-10,,
,8.693003,1.24E-10,,
,8.695003,1.24E-10,,
,8.697003,1.23E-10,,
,8.699003,1.24E-10,,
,8.701003,1.23E-10,,
,8.703003,1.23E-10,,
,8.705003,1.22E-10,,
,8.707003,1.21E-10,,
,8.709003,1.20E-10,,
,8.711003,1.19E-10,,
,8.713003,1.19E-10,,
,8.715003,1.19E-10,,
,8.717003,1.19E-10,,
,8.719003,1.19E-10,,
,8.721003,1.18E-10,,
,8.723003,1.17E-10,,
,8.725003,1.16E-10,,
,8.727003,1.15E-10,,
,8.729003,1.15E-10,,
,8.731003,1.15E-10,,
,8.733003,1.15E-10,,
,8.735003,1.15E-10,,
,8.737003,1.14E-10,,
,8.739003,1.14E-10,,
,8.741003,1.12E-10,,
,8.743003,1.11E-10,,
,8.745003,1.11E-10,,
,8.747003,1.11E-10,,
,8.749003,1.11E-10,,
,8.751003,1.11E-10,,
,8.753003,1.11E-10,,
,8.755003,1.10E-10,,
,8.757003,1.09E-10,,
,8.759003,1.08E-10,,
,8.761003,1.07E-10,,
,8.763003,1.07E-10,,
,8.765003,1.07E-10,,
,8.767003,1.07E-10,,
,8.769003,1.07E-10,,
,8.771003,1.06E-10,,
,8.773003,1.05E-10,,
,8.775003,1.03E-10,,
,8.777003,1.03E-10,,
,8.779003,1.02E-10,,
,8.781003,1.02E-10,,
,8.783003,1.02E-10,,
,8.785003,1.02E-10,,
,8.787003,1.01E-10,,
,8.789003,9.93E-11,,
,8.791003,9.78E-11,,
,8.793003,9.66E-11,,
,8.795003,9.55E-11,,
,8.797003,9.53E-11,,
,8.799003,9.51E-11,,
,8.801003,9.49E-11,,
,8.803003,9.39E-11,,
,8.805003,9.26E-11,,
,8.807003,9.08E-11,,
,8.809003,8.92E-11,,
,8.811003,8.80E-11,,
,8.813003,8.75E-11,,
,8.815003,8.74E-11,,
,8.817003,8.70E-11,,
,8.819003,8.63E-11,,
,8.821003,8.49E-11,,
,8.823003,8.31E-11,,
,8.825003,8.12E-11,,
,8.827003,8.00E-11,,
,8.829003,7.91E-11,,
,8.831003,7.90E-11,,
,8.833003,7.86E-11,,
,8.835003,7.77E-11,,
,8.837003,7.62E-11,,
,8.839003,7.45E-11,,
,8.841003,7.30E-11,,
,8.843003,7.17E-11,,
,8.845003,7.06E-11,,
,8.847003,6.99E-11,,
,8.849003,6.93E-11,,
,8.851003,6.89E-11,,
,8.853003,6.77E-11,,
,8.855003,6.61E-11,,
,8.857003,6.39E-11,,
,8.859003,6.22E-11,,
,8.861003,6.06E-11,,
,8.863003,5.98E-11,,
,8.865003,5.91E-11,,
,8.867003,5.87E-11,,
,8.869003,5.78E-11,,
,8.871003,5.66E-11,,
,8.873003,5.47E-11,,
,8.875003,5.31E-11,,
,8.877003,5.18E-11,,
,8.879003,5.11E-11,,
,8.881003,5.05E-11,,
,8.883003,4.99E-11,,
,8.885003,4.90E-11,,
,8.887003,4.77E-11,,
,8.889003,4.60E-11,,
,8.891003,4.42E-11,,
,8.893003,4.25E-11,,
,8.895003,4.16E-11,,
,8.897003,4.11E-11,,
,8.899003,4.07E-11,,
,8.901003,4.00E-11,,
,8.903003,3.89E-11,,
,8.905003,3.78E-11,,
,8.907003,3.60E-11,,
,8.909003,3.47E-11,,
,8.911003,3.34E-11,,
,8.913003,3.26E-11,,
,8.915003,3.23E-11,,
,8.917003,3.22E-11,,
,8.919003,3.14E-11,,
,8.921003,3.01E-11,,
,8.923003,2.82E-11,,
,8.925003,2.66E-11,,
,8.927003,2.52E-11,,
,8.929003,2.46E-11,,
,8.931003,2.43E-11,,
,8.933003,2.42E-11,,
,8.935003,2.38E-11,,
,8.937003,2.28E-11,,
,8.939003,2.12E-11,,
,8.941003,1.96E-11,,
,8.943003,1.81E-11,,
,8.945003,1.75E-11,,
,8.947003,1.70E-11,,
,8.949003,1.70E-11,,
,8.951003,1.66E-11,,
,8.953003,1.59E-11,,
,8.955003,1.43E-11,,
,8.957003,1.24E-11,,
,8.959003,1.09E-11,,
,8.961003,1.01E-11,,
,8.963003,9.74E-12,,
,8.965003,9.74E-12,,
,8.967003,9.64E-12,,
,8.969003,9.42E-12,,
,8.971003,8.35E-12,,
,8.973003,7.06E-12,,
,8.975003,5.56E-12,,
,8.977003,4.59E-12,,
,8.979003,4.16E-12,,
,8.981003,4.05E-12,,
,8.983003,3.73E-12,,
,8.985003,3.30E-12,,
,8.987003,2.34E-12,,
,8.989003,1.16E-12,,
,8.991003,-4.55E-13,,
,8.993003,-1.64E-12,,
,8.995003,-2.39E-12,,
,8.997003,-2.28E-12,,
,8.999003,-2.17E-12,,
,9.001003,-2.17E-12,,
,9.003003,-2.92E-12,,
,9.005003,-4.00E-12,,
,9.007003,-5.18E-12,,
,9.009003,-6.25E-12,,
,9.011003,-6.90E-12,,
,9.013003,-7.22E-12,,
,9.015003,-7.11E-12,,
,9.017003,-7.11E-12,,
,9.019003,-7.54E-12,,
,9.021003,-8.51E-12,,
,9.023003,-9.79E-12,,
,9.025003,-1.10E-11,,
,9.027003,-1.19E-11,,
,9.029003,-1.23E-11,,
,9.031003,-1.23E-11,,
,9.033003,-1.19E-11,,
,9.035003,-1.20E-11,,
,9.037003,-1.25E-11,,
,9.039003,-1.36E-11,,
,9.041003,-1.45E-11,,
,9.043003,-1.55E-11,,
,9.045003,-1.57E-11,,
,9.047003,-1.58E-11,,
,9.049003,-1.55E-11,,
,9.051003,-1.55E-11,,
,9.053003,-1.57E-11,,
,9.055003,-1.68E-11,,
,9.057003,-1.82E-11,,
,9.059003,-1.95E-11,,
,9.061003,-2.02E-11,,
,9.063003,-2.02E-11,,
,9.065003,-1.99E-11,,
,9.067003,-1.95E-11,,
,9.069003,-1.96E-11,,
,9.071003,-2.02E-11,,
,9.073003,-2.14E-11,,
,9.075003,-2.25E-11,,
,9.077003,-2.32E-11,,
,9.079003,-2.33E-11,,
,9.081003,-2.30E-11,,
,9.083003,-2.29E-11,,
,9.085003,-2.31E-11,,
,9.087003,-2.40E-11,,
,9.089003,-2.50E-11,,
,9.091003,-2.62E-11,,
,9.093003,-2.70E-11,,
,9.095003,-2.76E-11,,
,9.097003,-2.74E-11,,
,9.099003,-2.74E-11,,
,9.101003,-2.72E-11,,
,9.103003,-2.76E-11,,
,9.105003,-2.83E-11,,
,9.107003,-2.93E-11,,
,9.109003,-3.02E-11,,
,9.111003,-3.07E-11,,
,9.113003,-3.07E-11,,
,9.115003,-3.07E-11,,
,9.117003,-3.05E-11,,
,9.119003,-3.07E-11,,
,9.121003,-3.16E-11,,
,9.123003,-3.31E-11,,
,9.125003,-3.43E-11,,
,9.127003,-3.48E-11,,
,9.129003,-3.50E-11,,
,9.131003,-3.48E-11,,
,9.133003,-3.46E-11,,
,9.135003,-3.45E-11,,
,9.137003,-3.50E-11,,
,9.139003,-3.59E-11,,
,9.141003,-3.71E-11,,
,9.143003,-3.80E-11,,
,9.145003,-3.87E-11,,
,9.147003,-3.86E-11,,
,9.149003,-3.84E-11,,
,9.151003,-3.86E-11,,
,9.153003,-3.93E-11,,
,9.155003,-4.05E-11,,
,9.157003,-4.17E-11,,
,9.159003,-4.28E-11,,
,9.161003,-4.33E-11,,
,9.163003,-4.33E-11,,
,9.165003,-4.29E-11,,
,9.167003,-4.28E-11,,
,9.169003,-4.32E-11,,
,9.171003,-4.41E-11,,
,9.173003,-4.52E-11,,
,9.175003,-4.64E-11,,
,9.177003,-4.74E-11,,
,9.179003,-4.79E-11,,
,9.181003,-4.77E-11,,
,9.183003,-4.76E-11,,
,9.185003,-4.78E-11,,
,9.187003,-4.87E-11,,
,9.189003,-5.01E-11,,
,9.191003,-5.16E-11,,
,9.193003,-5.26E-11,,
,9.195003,-5.30E-11,,
,9.197003,-5.30E-11,,
,9.199003,-5.28E-11,,
,9.201003,-5.30E-11,,
,9.203003,-5.34E-11,,
,9.205003,-5.45E-11,,
,9.207003,-5.59E-11,,
,9.209003,-5.74E-11,,
,9.211003,-5.83E-11,,
,9.213003,-5.84E-11,,
,9.215003,-5.81E-11,,
,9.217003,-5.79E-11,,
,9.219003,-5.84E-11,,
,9.221003,-5.93E-11,,
,9.223003,-6.08E-11,,
,9.225003,-6.20E-11,,
,9.227003,-6.29E-11,,
,9.229003,-6.30E-11,,
,9.231003,-6.30E-11,,
,9.233003,-6.28E-11,,
,9.235003,-6.29E-11,,
,9.237003,-6.36E-11,,
,9.239003,-6.48E-11,,
,9.241003,-6.59E-11,,
,9.243003,-6.67E-11,,
,9.245003,-6.70E-11,,
,9.247003,-6.68E-11,,
,9.249003,-6.64E-11,,
,9.251003,-6.59E-11,,
,9.253003,-6.62E-11,,
,9.255003,-6.69E-11,,
,9.257003,-6.80E-11,,
,9.259003,-6.88E-11,,
,9.261003,-6.92E-11,,
,9.263003,-6.87E-11,,
,9.265003,-6.81E-11,,
,9.267003,-6.74E-11,,
,9.269003,-6.71E-11,,
,9.271003,-6.73E-11,,
,9.273003,-6.80E-11,,
,9.275003,-6.86E-11,,
,9.277003,-6.86E-11,,
,9.279003,-6.80E-11,,
,9.281003,-6.71E-11,,
,9.283003,-6.64E-11,,
,9.285003,-6.57E-11,,
,9.287003,-6.56E-11,,
,9.289003,-6.58E-11,,
,9.291003,-6.63E-11,,
,9.293003,-6.65E-11,,
,9.295003,-6.58E-11,,
,9.297003,-6.49E-11,,
,9.299003,-6.33E-11,,
,9.301003,-6.22E-11,,
,9.303003,-6.13E-11,,
,9.305003,-6.14E-11,,
,9.307003,-6.15E-11,,
,9.309003,-6.19E-11,,
,9.311003,-6.13E-11,,
,9.313003,-6.04E-11,,
,9.315003,-5.86E-11,,
,9.317003,-5.72E-11,,
,9.319003,-5.64E-11,,
,9.321003,-5.61E-11,,
,9.323003,-5.59E-11,,
,9.325003,-5.57E-11,,
,9.327003,-5.55E-11,,
,9.329003,-5.48E-11,,
,9.331003,-5.36E-11,,
,9.333003,-5.22E-11,,
,9.335003,-5.14E-11,,
,9.337003,-5.11E-11,,
,9.339003,-5.12E-11,,
,9.341003,-5.16E-11,,
,9.343003,-5.12E-11,,
,9.345003,-5.07E-11,,
,9.347003,-4.94E-11,,
,9.349003,-4.84E-11,,
,9.351003,-4.76E-11,,
,9.353003,-4.72E-11,,
,9.355003,-4.73E-11,,
,9.357003,-4.75E-11,,
,9.359003,-4.77E-11,,
,9.361003,-4.75E-11,,
,9.363003,-4.69E-11,,
,9.365003,-4.60E-11,,
,9.367003,-4.49E-11,,
,9.369003,-4.44E-11,,
,9.371003,-4.45E-11,,
,9.373003,-4.51E-11,,
,9.375003,-4.55E-11,,
,9.377003,-4.59E-11,,
,9.379003,-4.58E-11,,
,9.381003,-4.51E-11,,
,9.383003,-4.44E-11,,
,9.385003,-4.37E-11,,
,9.387003,-4.41E-11,,
,9.389003,-4.50E-11,,
,9.391003,-4.61E-11,,
,9.393003,-4.65E-11,,
,9.395003,-4.69E-11,,
,9.397003,-4.66E-11,,
,9.399003,-4.65E-11,,
,9.401003,-4.63E-11,,
,9.403003,-4.67E-11,,
,9.405003,-4.76E-11,,
,9.407003,-4.86E-11,,
,9.409003,-4.96E-11,,
,9.411003,-5.03E-11,,
,9.413003,-5.03E-11,,
,9.415003,-5.02E-11,,
,9.417003,-4.98E-11,,
,9.419003,-5.03E-11,,
,9.421003,-5.12E-11,,
,9.423003,-5.28E-11,,
,9.425003,-5.40E-11,,
,9.427003,-5.48E-11,,
,9.429003,-5.49E-11,,
,9.431003,-5.46E-11,,
,9.433003,-5.43E-11,,
,9.435003,-5.42E-11,,
,9.437003,-5.50E-11,,
,9.439003,-5.57E-11,,
,9.441003,-5.70E-11,,
,9.443003,-5.79E-11,,
,9.445003,-5.83E-11,,
,9.447003,-5.81E-11,,
,9.449003,-5.78E-11,,
,9.451003,-5.77E-11,,
,9.453003,-5.79E-11,,
,9.455003,-5.90E-11,,
,9.457003,-6.01E-11,,
,9.459003,-6.12E-11,,
,9.461003,-6.16E-11,,
,9.463003,-6.15E-11,,
,9.465003,-6.11E-11,,
,9.467003,-6.07E-11,,
,9.469003,-6.07E-11,,
,9.471003,-6.14E-11,,
,9.473003,-6.22E-11,,
,9.475003,-6.30E-11,,
,9.477003,-6.33E-11,,
,9.479003,-6.34E-11,,
,9.481003,-6.27E-11,,
,9.483003,-6.23E-11,,
,9.485003,-6.20E-11,,
,9.487003,-6.24E-11,,
,9.489003,-6.34E-11,,
,9.491003,-6.43E-11,,
,9.493003,-6.49E-11,,
,9.495003,-6.45E-11,,
,9.497003,-6.39E-11,,
,9.499003,-6.35E-11,,
,9.501003,-6.29E-11,,
,9.503003,-6.27E-11,,
,9.505003,-6.29E-11,,
,9.507003,-6.34E-11,,
,9.509003,-6.38E-11,,
,9.511003,-6.34E-11,,
,9.513003,-6.28E-11,,
,9.515003,-6.19E-11,,
,9.517003,-6.09E-11,,
,9.519003,-6.01E-11,,
,9.521003,-6.00E-11,,
,9.523003,-6.05E-11,,
,9.525003,-6.09E-11,,
,9.527003,-6.07E-11,,
,9.529003,-5.98E-11,,
,9.531003,-5.84E-11,,
,9.533003,-5.69E-11,,
,9.535003,-5.59E-11,,
,9.537003,-5.52E-11,,
,9.539003,-5.52E-11,,
,9.541003,-5.51E-11,,
,9.543003,-5.48E-11,,
,9.545003,-5.36E-11,,
,9.547003,-5.21E-11,,
,9.549003,-5.06E-11,,
,9.551003,-4.94E-11,,
,9.553003,-4.86E-11,,
,9.555003,-4.81E-11,,
,9.557003,-4.79E-11,,
,9.559003,-4.77E-11,,
,9.561003,-4.67E-11,,
,9.563003,-4.52E-11,,
,9.565003,-4.31E-11,,
,9.567003,-4.13E-11,,
,9.569003,-3.97E-11,,
,9.571003,-3.90E-11,,
,9.573003,-3.85E-11,,
,9.575003,-3.79E-11,,
,9.577003,-3.72E-11,,
,9.579003,-3.59E-11,,
,9.581003,-3.39E-11,,
,9.583003,-3.19E-11,,
,9.585003,-3.05E-11,,
,9.587003,-2.99E-11,,
,9.589003,-2.97E-11,,
,9.591003,-2.91E-11,,
,9.593003,-2.85E-11,,
,9.595003,-2.72E-11,,
,9.597003,-2.55E-11,,
,9.599003,-2.34E-11,,
,9.601003,-2.17E-11,,
,9.603003,-2.07E-11,,
,9.605003,-2.04E-11,,
,9.607003,-2.03E-11,,
,9.609003,-2.00E-11,,
,9.611003,-1.91E-11,,
,9.613003,-1.77E-11,,
,9.615003,-1.61E-11,,
,9.617003,-1.45E-11,,
,9.619003,-1.32E-11,,
,9.621003,-1.26E-11,,
,9.623003,-1.27E-11,,
,9.625003,-1.30E-11,,
,9.627003,-1.27E-11,,
,9.629003,-1.15E-11,,
,9.631003,-9.90E-12,,
,9.633003,-8.40E-12,,
,9.635003,-7.54E-12,,
,9.637003,-7.11E-12,,
,9.639003,-6.90E-12,,
,9.641003,-6.90E-12,,
,9.643003,-6.68E-12,,
,9.645003,-6.14E-12,,
,9.647003,-4.86E-12,,
,9.649003,-3.46E-12,,
,9.651003,-2.28E-12,,
,9.653003,-1.74E-12,,
,9.655003,-1.85E-12,,
,9.657003,-2.17E-12,,
,9.659003,-2.49E-12,,
,9.661003,-2.17E-12,,
,9.663003,-1.31E-12,,
,9.665003,-2.53E-14,,
,9.667003,1.05E-12,,
,9.669003,1.69E-12,,
,9.671003,1.80E-12,,
,9.673003,1.48E-12,,
,9.675003,1.05E-12,,
,9.677003,1.16E-12,,
,9.679003,2.01E-12,,
,9.681003,3.09E-12,,
,9.683003,4.16E-12,,
,9.685003,4.70E-12,,
,9.687003,4.70E-12,,
,9.689003,4.27E-12,,
,9.691003,3.62E-12,,
,9.693003,3.52E-12,,
,9.695003,3.84E-12,,
,9.697003,4.70E-12,,
,9.699003,5.77E-12,,
,9.701003,6.74E-12,,
,9.703003,7.06E-12,,
,9.705003,6.74E-12,,
,9.707003,5.99E-12,,
,9.709003,5.66E-12,,
,9.711003,5.99E-12,,
,9.713003,6.85E-12,,
,9.715003,7.92E-12,,
,9.717003,8.67E-12,,
,9.719003,9.10E-12,,
,9.721003,9.10E-12,,
,9.723003,8.56E-12,,
,9.725003,8.13E-12,,
,9.727003,7.92E-12,,
,9.729003,8.56E-12,,
,9.731003,9.31E-12,,
,9.733003,1.03E-11,,
,9.735003,1.08E-11,,
,9.737003,1.09E-11,,
,9.739003,1.06E-11,,
,9.741003,9.85E-12,,
,9.743003,9.74E-12,,
,9.745003,1.01E-11,,
,9.747003,1.12E-11,,
,9.749003,1.21E-11,,
,9.751003,1.26E-11,,
,9.753003,1.26E-11,,
,9.755003,1.22E-11,,
,9.757003,1.17E-11,,
,9.759003,1.12E-11,,
,9.761003,1.14E-11,,
,9.763003,1.18E-11,,
,9.765003,1.28E-11,,
,9.767003,1.37E-11,,
,9.769003,1.43E-11,,
,9.771003,1.40E-11,,
,9.773003,1.33E-11,,
,9.775003,1.28E-11,,
,9.777003,1.25E-11,,
,9.779003,1.31E-11,,
,9.781003,1.40E-11,,
,9.783003,1.49E-11,,
,9.785003,1.51E-11,,
,9.787003,1.48E-11,,
,9.789003,1.40E-11,,
,9.791003,1.34E-11,,
,9.793003,1.29E-11,,
,9.795003,1.29E-11,,
,9.797003,1.33E-11,,
,9.799003,1.39E-11,,
,9.801003,1.46E-11,,
,9.803003,1.46E-11,,
,9.805003,1.39E-11,,
,9.807003,1.29E-11,,
,9.809003,1.21E-11,,
,9.811003,1.20E-11,,
,9.813003,1.25E-11,,
,9.815003,1.33E-11,,
,9.817003,1.39E-11,,
,9.819003,1.38E-11,,
,9.821003,1.33E-11,,
,9.823003,1.23E-11,,
,9.825003,1.16E-11,,
,9.827003,1.10E-11,,
,9.829003,1.11E-11,,
,9.831003,1.18E-11,,
,9.833003,1.22E-11,,
,9.835003,1.24E-11,,
,9.837003,1.20E-11,,
,9.839003,1.16E-11,,
,9.841003,1.06E-11,,
,9.843003,9.85E-12,,
,9.845003,9.53E-12,,
,9.847003,9.96E-12,,
,9.849003,1.07E-11,,
,9.851003,1.11E-11,,
,9.853003,1.10E-11,,
,9.855003,1.03E-11,,
,9.857003,9.21E-12,,
,9.859003,8.35E-12,,
,9.861003,7.81E-12,,
,9.863003,8.03E-12,,
,9.865003,8.56E-12,,
,9.867003,9.31E-12,,
,9.869003,9.31E-12,,
,9.871003,8.78E-12,,
,9.873003,7.70E-12,,
,9.875003,6.95E-12,,
,9.877003,6.31E-12,,
,9.879003,6.20E-12,,
,9.881003,6.74E-12,,
,9.883003,7.38E-12,,
,9.885003,7.81E-12,,
,9.887003,7.17E-12,,
,9.889003,6.31E-12,,
,9.891003,5.45E-12,,
,9.893003,5.13E-12,,
,9.895003,5.24E-12,,
,9.897003,5.77E-12,,
,9.899003,6.74E-12,,
,9.901003,7.17E-12,,
,9.903003,7.38E-12,,
,9.905003,6.63E-12,,
,9.907003,6.09E-12,,
,9.909003,5.45E-12,,
,9.911003,5.66E-12,,
,9.913003,6.42E-12,,
,9.915003,7.60E-12,,
,9.917003,8.78E-12,,
,9.919003,9.64E-12,,
,9.921003,1.01E-11,,
,9.923003,9.85E-12,,
,9.925003,9.96E-12,,
,9.927003,1.05E-11,,
,9.929003,1.17E-11,,
,9.931003,1.34E-11,,
,9.933003,1.50E-11,,
,9.935003,1.69E-11,,
,9.937003,1.79E-11,,
,9.939003,1.88E-11,,
,9.941003,1.94E-11,,
,9.943003,2.08E-11,,
,9.945003,2.27E-11,,
,9.947003,2.51E-11,,
,9.949003,2.76E-11,,
,9.951003,3.00E-11,,
,9.953003,3.22E-11,,
,9.955003,3.38E-11,,
,9.957003,3.51E-11,,
,9.959003,3.65E-11,,
,9.961003,3.85E-11,,
,9.963003,4.11E-11,,
,9.965003,4.43E-11,,
,9.967003,4.75E-11,,
,9.969003,5.05E-11,,
,9.971003,5.29E-11,,
,9.973003,5.50E-11,,
,9.975003,5.73E-11,,
,9.977003,6.00E-11,,
,9.979003,6.33E-11,,
,9.981003,6.73E-11,,
,9.983003,7.14E-11,,
,9.985003,7.51E-11,,
,9.987003,7.81E-11,,
,9.989003,8.08E-11,,
,9.991003,8.34E-11,,
,9.993003,8.65E-11,,
,9.995003,9.03E-11,,
,9.997003,9.46E-11,,
,9.999003,9.95E-11,,
,10.001003,1.04E-10,,
,10.003003,1.08E-10,,
,10.005003,1.11E-10,,
,10.007003,1.15E-10,,
,10.009003,1.18E-10,,
,10.011003,1.22E-10,,
,10.013003,1.27E-10,,
,10.015003,1.32E-10,,
,10.017003,1.37E-10,,
,10.019003,1.42E-10,,
,10.021003,1.46E-10,,
,10.023003,1.50E-10,,
,10.025003,1.54E-10,,
,10.027003,1.58E-10,,
,10.029003,1.63E-10,,
,10.031003,1.68E-10,,
,10.033003,1.74E-10,,
,10.035003,1.79E-10,,
,10.037003,1.84E-10,,
,10.039003,1.88E-10,,
,10.041003,1.92E-10,,
,10.043003,1.97E-10,,
,10.045003,2.02E-10,,
,10.047003,2.07E-10,,
,10.049003,2.13E-10,,
,10.051003,2.19E-10,,
,10.053003,2.24E-10,,
,10.055003,2.28E-10,,
,10.057003,2.32E-10,,
,10.059003,2.37E-10,,
,10.061003,2.42E-10,,
,10.063003,2.47E-10,,
,10.065003,2.53E-10,,
,10.067003,2.59E-10,,
,10.069003,2.64E-10,,
,10.071003,2.68E-10,,
,10.073003,2.72E-10,,
,10.075003,2.76E-10,,
,10.077003,2.81E-10,,
,10.079003,2.86E-10,,
,10.081003,2.91E-10,,
,10.083003,2.96E-10,,
,10.085003,3.01E-10,,
,10.087003,3.05E-10,,
,10.089003,3.08E-10,,
,10.091003,3.11E-10,,
,10.093003,3.14E-10,,
,10.095003,3.18E-10,,
,10.097003,3.22E-10,,
,10.099003,3.26E-10,,
,10.101003,3.30E-10,,
,10.103003,3.33E-10,,
,10.105003,3.35E-10,,
,10.107003,3.36E-10,,
,10.109003,3.38E-10,,
,10.111003,3.40E-10,,
,10.113003,3.42E-10,,
,10.115003,3.44E-10,,
,10.117003,3.46E-10,,
,10.119003,3.47E-10,,
,10.121003,3.47E-10,,
,10.123003,3.47E-10,,
,10.125003,3.46E-10,,
,10.127003,3.46E-10,,
,10.129003,3.46E-10,,
,10.131003,3.46E-10,,
,10.133003,3.46E-10,,
,10.135003,3.45E-10,,
,10.137003,3.43E-10,,
,10.139003,3.40E-10,,
,10.141003,3.37E-10,,
,10.143003,3.35E-10,,
,10.145003,3.32E-10,,
,10.147003,3.30E-10,,
,10.149003,3.28E-10,,
,10.151003,3.25E-10,,
,10.153003,3.21E-10,,
,10.155003,3.16E-10,,
,10.157003,3.11E-10,,
,10.159003,3.05E-10,,
,10.161003,3.01E-10,,
,10.163003,2.97E-10,,
,10.165003,2.93E-10,,
,10.167003,2.89E-10,,
,10.169003,2.84E-10,,
,10.171003,2.79E-10,,
,10.173003,2.73E-10,,
,10.175003,2.67E-10,,
,10.177003,2.62E-10,,
,10.179003,2.57E-10,,
,10.181003,2.52E-10,,
,10.183003,2.48E-10,,
,10.185003,2.43E-10,,
,10.187003,2.38E-10,,
,10.189003,2.32E-10,,
,10.191003,2.26E-10,,
,10.193003,2.21E-10,,
,10.195003,2.16E-10,,
,10.197003,2.12E-10,,
,10.199003,2.08E-10,,
,10.201003,2.04E-10,,
,10.203003,2.00E-10,,
,10.205003,1.95E-10,,
,10.207003,1.90E-10,,
,10.209003,1.86E-10,,
,10.211003,1.82E-10,,
,10.213003,1.79E-10,,
,10.215003,1.76E-10,,
,10.217003,1.73E-10,,
,10.219003,1.70E-10,,
,10.221003,1.66E-10,,
,10.223003,1.61E-10,,
,10.225003,1.57E-10,,
,10.227003,1.54E-10,,
,10.229003,1.51E-10,,
,10.231003,1.48E-10,,
,10.233003,1.46E-10,,
,10.235003,1.44E-10,,
,10.237003,1.41E-10,,
,10.239003,1.38E-10,,
,10.241003,1.35E-10,,
,10.243003,1.32E-10,,
,10.245003,1.30E-10,,
,10.247003,1.28E-10,,
,10.249003,1.27E-10,,
,10.251003,1.26E-10,,
,10.253003,1.23E-10,,
,10.255003,1.21E-10,,
,10.257003,1.18E-10,,
,10.259003,1.15E-10,,
,10.261003,1.13E-10,,
,10.263003,1.12E-10,,
,10.265003,1.11E-10,,
,10.267003,1.10E-10,,
,10.269003,1.08E-10,,
,10.271003,1.06E-10,,
,10.273003,1.04E-10,,
,10.275003,1.02E-10,,
,10.277003,9.99E-11,,
,10.279003,9.85E-11,,
,10.281003,9.78E-11,,
,10.283003,9.70E-11,,
,10.285003,9.61E-11,,
,10.287003,9.41E-11,,
,10.289003,9.18E-11,,
,10.291003,8.92E-11,,
,10.293003,8.70E-11,,
,10.295003,8.55E-11,,
,10.297003,8.47E-11,,
,10.299003,8.41E-11,,
,10.301003,8.33E-11,,
,10.303003,8.17E-11,,
,10.305003,7.96E-11,,
,10.307003,7.74E-11,,
,10.309003,7.54E-11,,
,10.311003,7.41E-11,,
,10.313003,7.33E-11,,
,10.315003,7.25E-11,,
,10.317003,7.17E-11,,
,10.319003,7.02E-11,,
,10.321003,6.83E-11,,
,10.323003,6.59E-11,,
,10.325003,6.37E-11,,
,10.327003,6.22E-11,,
,10.329003,6.11E-11,,
,10.331003,6.02E-11,,
,10.333003,5.92E-11,,
,10.335003,5.83E-11,,
,10.337003,5.68E-11,,
,10.339003,5.48E-11,,
,10.341003,5.24E-11,,
,10.343003,5.04E-11,,
,10.345003,4.91E-11,,
,10.347003,4.85E-11,,
,10.349003,4.80E-11,,
,10.351003,4.70E-11,,
,10.353003,4.55E-11,,
,10.355003,4.32E-11,,
,10.357003,4.09E-11,,
,10.359003,3.89E-11,,
,10.361003,3.73E-11,,
,10.363003,3.66E-11,,
,10.365003,3.59E-11,,
,10.367003,3.54E-11,,
,10.369003,3.43E-11,,
,10.371003,3.27E-11,,
,10.373003,3.07E-11,,
,10.375003,2.85E-11,,
,10.377003,2.71E-11,,
,10.379003,2.65E-11,,
,10.381003,2.66E-11,,
,10.383003,2.64E-11,,
,10.385003,2.57E-11,,
,10.387003,2.41E-11,,
,10.389003,2.22E-11,,
,10.391003,2.04E-11,,
,10.393003,1.90E-11,,
,10.395003,1.81E-11,,
,10.397003,1.79E-11,,
,10.399003,1.80E-11,,
,10.401003,1.81E-11,,
,10.403003,1.75E-11,,
,10.405003,1.62E-11,,
,10.407003,1.46E-11,,
,10.409003,1.33E-11,,
,10.411003,1.26E-11,,
,10.413003,1.26E-11,,
,10.415003,1.32E-11,,
,10.417003,1.36E-11,,
,10.419003,1.35E-11,,
,10.421003,1.25E-11,,
,10.423003,1.12E-11,,
,10.425003,1.01E-11,,
,10.427003,9.53E-12,,
,10.429003,9.64E-12,,
,10.431003,1.02E-11,,
,10.433003,1.07E-11,,
,10.435003,1.09E-11,,
,10.437003,1.09E-11,,
,10.439003,1.06E-11,,
,10.441003,1.02E-11,,
,10.443003,9.85E-12,,
,10.445003,1.02E-11,,
,10.447003,1.10E-11,,
,10.449003,1.24E-11,,
,10.451003,1.33E-11,,
,10.453003,1.39E-11,,
,10.455003,1.37E-11,,
,10.457003,1.33E-11,,
,10.459003,1.33E-11,,
,10.461003,1.40E-11,,
,10.463003,1.56E-11,,
,10.465003,1.74E-11,,
,10.467003,1.91E-11,,
,10.469003,2.04E-11,,
,10.471003,2.10E-11,,
,10.473003,2.11E-11,,
,10.475003,2.16E-11,,
,10.477003,2.26E-11,,
,10.479003,2.45E-11,,
,10.481003,2.66E-11,,
,10.483003,2.86E-11,,
,10.485003,3.05E-11,,
,10.487003,3.16E-11,,
,10.489003,3.24E-11,,
,10.491003,3.29E-11,,
,10.493003,3.39E-11,,
,10.495003,3.58E-11,,
,10.497003,3.82E-11,,
,10.499003,4.08E-11,,
,10.501003,4.28E-11,,
,10.503003,4.44E-11,,
,10.505003,4.56E-11,,
,10.507003,4.66E-11,,
,10.509003,4.80E-11,,
,10.511003,4.99E-11,,
,10.513003,5.21E-11,,
,10.515003,5.46E-11,,
,10.517003,5.67E-11,,
,10.519003,5.86E-11,,
,10.521003,5.98E-11,,
,10.523003,6.06E-11,,
,10.525003,6.15E-11,,
,10.527003,6.31E-11,,
,10.529003,6.52E-11,,
,10.531003,6.76E-11,,
,10.533003,7.00E-11,,
,10.535003,7.21E-11,,
,10.537003,7.36E-11,,
,10.539003,7.43E-11,,
,10.541003,7.48E-11,,
,10.543003,7.58E-11,,
,10.545003,7.75E-11,,
,10.547003,8.00E-11,,
,10.549003,8.24E-11,,
,10.551003,8.46E-11,,
,10.553003,8.55E-11,,
,10.555003,8.65E-11,,
,10.557003,8.69E-11,,
,10.559003,8.77E-11,,
,10.561003,8.87E-11,,
,10.563003,9.02E-11,,
,10.565003,9.23E-11,,
,10.567003,9.40E-11,,
,10.569003,9.54E-11,,
,10.571003,9.60E-11,,
,10.573003,9.63E-11,,
,10.575003,9.67E-11,,
,10.577003,9.76E-11,,
,10.579003,9.93E-11,,
,10.581003,1.01E-10,,
,10.583003,1.04E-10,,
,10.585003,1.05E-10,,
,10.587003,1.06E-10,,
,10.589003,1.07E-10,,
,10.591003,1.07E-10,,
,10.593003,1.08E-10,,
,10.595003,1.09E-10,,
,10.597003,1.11E-10,,
,10.599003,1.12E-10,,
,10.601003,1.15E-10,,
,10.603003,1.16E-10,,
,10.605003,1.16E-10,,
,10.607003,1.16E-10,,
,10.609003,1.17E-10,,
,10.611003,1.18E-10,,
,10.613003,1.20E-10,,
,10.615003,1.22E-10,,
,10.617003,1.24E-10,,
,10.619003,1.25E-10,,
,10.621003,1.26E-10,,
,10.623003,1.26E-10,,
,10.625003,1.27E-10,,
,10.627003,1.28E-10,,
,10.629003,1.29E-10,,
,10.631003,1.31E-10,,
,10.633003,1.33E-10,,
,10.635003,1.34E-10,,
,10.637003,1.35E-10,,
,10.639003,1.35E-10,,
,10.641003,1.36E-10,,
,10.643003,1.36E-10,,
,10.645003,1.38E-10,,
,10.647003,1.40E-10,,
,10.649003,1.41E-10,,
,10.651003,1.43E-10,,
,10.653003,1.44E-10,,
,10.655003,1.44E-10,,
,10.657003,1.44E-10,,
,10.659003,1.44E-10,,
,10.661003,1.45E-10,,
,10.663003,1.46E-10,,
,10.665003,1.47E-10,,
,10.667003,1.49E-10,,
,10.669003,1.50E-10,,
,10.671003,1.50E-10,,
,10.673003,1.50E-10,,
,10.675003,1.50E-10,,
,10.677003,1.50E-10,,
,10.679003,1.51E-10,,
,10.681003,1.53E-10,,
,10.683003,1.54E-10,,
,10.685003,1.55E-10,,
,10.687003,1.55E-10,,
,10.689003,1.54E-10,,
,10.691003,1.53E-10,,
,10.693003,1.53E-10,,
,10.695003,1.53E-10,,
,10.697003,1.54E-10,,
,10.699003,1.55E-10,,
,10.701003,1.56E-10,,
,10.703003,1.56E-10,,
,10.705003,1.55E-10,,
,10.707003,1.55E-10,,
,10.709003,1.54E-10,,
,10.711003,1.54E-10,,
,10.713003,1.55E-10,,
,10.715003,1.56E-10,,
,10.717003,1.57E-10,,
,10.719003,1.56E-10,,
,10.721003,1.56E-10,,
,10.723003,1.55E-10,,
,10.725003,1.54E-10,,
,10.727003,1.53E-10,,
,10.729003,1.53E-10,,
,10.731003,1.54E-10,,
,10.733003,1.54E-10,,
,10.735003,1.54E-10,,
,10.737003,1.54E-10,,
,10.739003,1.53E-10,,
,10.741003,1.52E-10,,
,10.743003,1.51E-10,,
,10.745003,1.51E-10,,
,10.747003,1.51E-10,,
,10.749003,1.52E-10,,
,10.751003,1.52E-10,,
,10.753003,1.51E-10,,
,10.755003,1.50E-10,,
,10.757003,1.48E-10,,
,10.759003,1.47E-10,,
,10.761003,1.46E-10,,
,10.763003,1.46E-10,,
,10.765003,1.46E-10,,
,10.767003,1.47E-10,,
,10.769003,1.46E-10,,
,10.771003,1.45E-10,,
,10.773003,1.43E-10,,
,10.775003,1.42E-10,,
,10.777003,1.42E-10,,
,10.779003,1.41E-10,,
,10.781003,1.41E-10,,
,10.783003,1.41E-10,,
,10.785003,1.41E-10,,
,10.787003,1.40E-10,,
,10.789003,1.38E-10,,
,10.791003,1.36E-10,,
,10.793003,1.35E-10,,
,10.795003,1.35E-10,,
,10.797003,1.35E-10,,
,10.799003,1.35E-10,,
,10.801003,1.34E-10,,
,10.803003,1.34E-10,,
,10.805003,1.32E-10,,
,10.807003,1.30E-10,,
,10.809003,1.29E-10,,
,10.811003,1.28E-10,,
,10.813003,1.27E-10,,
,10.815003,1.27E-10,,
,10.817003,1.26E-10,,
,10.819003,1.25E-10,,
,10.821003,1.24E-10,,
,10.823003,1.21E-10,,
,10.825003,1.19E-10,,
,10.827003,1.18E-10,,
,10.829003,1.17E-10,,
,10.831003,1.16E-10,,
,10.833003,1.15E-10,,
,10.835003,1.14E-10,,
,10.837003,1.12E-10,,
,10.839003,1.10E-10,,
,10.841003,1.07E-10,,
,10.843003,1.05E-10,,
,10.845003,1.03E-10,,
,10.847003,1.02E-10,,
,10.849003,1.01E-10,,
,10.851003,9.91E-11,,
,10.853003,9.65E-11,,
,10.855003,9.32E-11,,
,10.857003,8.94E-11,,
,10.859003,8.59E-11,,
,10.861003,8.24E-11,,
,10.863003,7.97E-11,,
,10.865003,7.71E-11,,
,10.867003,7.43E-11,,
,10.869003,7.04E-11,,
,10.871003,6.57E-11,,
,10.873003,6.07E-11,,
,10.875003,5.57E-11,,
,10.877003,5.11E-11,,
,10.879003,4.66E-11,,
,10.881003,4.23E-11,,
,10.883003,3.78E-11,,
,10.885003,3.26E-11,,
,10.887003,2.68E-11,,
,10.889003,2.05E-11,,
,10.891003,1.43E-11,,
,10.893003,8.13E-12,,
,10.895003,2.66E-12,,
,10.897003,-2.39E-12,,
,10.899003,-7.00E-12,,
,10.901003,-1.19E-11,,
,10.903003,-1.75E-11,,
,10.905003,-2.34E-11,,
,10.907003,-2.95E-11,,
,10.909003,-3.49E-11,,
,10.911003,-3.99E-11,,
,10.913003,-4.39E-11,,
,10.915003,-4.79E-11,,
,10.917003,-5.18E-11,,
,10.919003,-5.59E-11,,
,10.921003,-6.04E-11,,
,10.923003,-6.51E-11,,
,10.925003,-6.97E-11,,
,10.927003,-7.33E-11,,
,10.929003,-7.64E-11,,
,10.931003,-7.87E-11,,
,10.933003,-8.10E-11,,
,10.935003,-8.32E-11,,
,10.937003,-8.59E-11,,
,10.939003,-8.89E-11,,
,10.941003,-9.18E-11,,
,10.943003,-9.41E-11,,
,10.945003,-9.58E-11,,
,10.947003,-9.68E-11,,
,10.949003,-9.76E-11,,
,10.951003,-9.85E-11,,
,10.953003,-1.00E-10,,
,10.955003,-1.02E-10,,
,10.957003,-1.04E-10,,
,10.959003,-1.05E-10,,
,10.961003,-1.06E-10,,
,10.963003,-1.07E-10,,
,10.965003,-1.06E-10,,
,10.967003,-1.06E-10,,
,10.969003,-1.06E-10,,
,10.971003,-1.07E-10,,
,10.973003,-1.08E-10,,
,10.975003,-1.09E-10,,
,10.977003,-1.09E-10,,
,10.979003,-1.09E-10,,
,10.981003,-1.08E-10,,
,10.983003,-1.08E-10,,
,10.985003,-1.07E-10,,
,10.987003,-1.07E-10,,
,10.989003,-1.08E-10,,
,10.991003,-1.08E-10,,
,10.993003,-1.09E-10,,
,10.995003,-1.08E-10,,
,10.997003,-1.07E-10,,
,10.999003,-1.06E-10,,
,11.001003,-1.06E-10,,
,11.003003,-1.06E-10,,
,11.005003,-1.06E-10,,
,11.007003,-1.07E-10,,
,11.009003,-1.07E-10,,
,11.011003,-1.07E-10,,
,11.013003,-1.06E-10,,
,11.015003,-1.05E-10,,
,11.017003,-1.04E-10,,
,11.019003,-1.04E-10,,
,11.021003,-1.04E-10,,
,11.023003,-1.05E-10,,
,11.025003,-1.06E-10,,
,11.027003,-1.06E-10,,
,11.029003,-1.05E-10,,
,11.031003,-1.05E-10,,
,11.033003,-1.04E-10,,
,11.035003,-1.04E-10,,
,11.037003,-1.04E-10,,
,11.039003,-1.05E-10,,
,11.041003,-1.06E-10,,
,11.043003,-1.06E-10,,
,11.045003,-1.06E-10,,
,11.047003,-1.05E-10,,
,11.049003,-1.05E-10,,
,11.051003,-1.04E-10,,
,11.053003,-1.05E-10,,
,11.055003,-1.05E-10,,
,11.057003,-1.06E-10,,
